0 1990
1 1995
2 2003
3 2011
4 2017
5 2026
6 2028
7 2027
8 2029
9 2023
10 2016
11 2006
12 1997
13 1989
14 1986
15 1980
16 1977
17 1973
18 1974
19 1981
20 1986
21 1993
22 2001
23 2010
24 2016
25 2024
26 2027
27 2026
28 2030
29 2024
30 2016
31 2009
32 2002
33 1995
34 1989
35 1977
36 1976
37 1976
38 1974
39 1978
40 1982
41 1990
42 1998
43 2007
44 2009
45 2016
46 2023
47 2028
48 2032
49 2031
50 2024
51 2015
52 2008
53 1997
54 1991
55 1983
56 1978
57 1978
58 1974
59 1977
60 1983
61 1992
62 2000
63 2007
64 2011
65 2018
66 2022
67 2025
68 2028
69 2023
70 2018
71 2010
72 2000
73 1990
74 1988
75 1985
76 1986
77 1986
78 1985
79 1992
80 2001
81 2013
82 2025
83 2039
84 2048
85 2057
86 2063
87 2061
88 2062
89 2063
90 2059
91 2046
92 2037
93 2028
94 2024
95 2016
96 2013
97 2017
98 2016
99 2020
100 2025
101 2032
102 2039
103 2048
104 2057
105 2065
106 2072
107 2075
108 2083
109 2085
110 2084
111 2077
112 2070
113 2062
114 2055
115 2043
116 2036
117 2035
118 2034
119 2039
120 2044
121 2052
122 2061
123 2069
124 2075
125 2083
126 2083
127 2078
128 2078
129 2072
130 2066
131 2053
132 2041
133 2030
134 2026
135 2021
136 2012
137 2007
138 2002
139 2001
140 2002
141 2006
142 2014
143 2020
144 2022
145 2027
146 2032
147 2032
148 2034
149 2029
150 2021
151 2011
152 1999
153 1990
154 1981
155 1971
156 1965
157 1968
158 1964
159 1962
160 1968
161 1979
162 1989
163 1996
164 2000
165 2008
166 2016
167 2015
168 2017
169 2014
170 2010
171 2003
172 1994
173 1986
174 1978
175 1971
176 1968
177 1969
178 1967
179 1968
180 1972
181 1978
182 1988
183 1997
184 2003
185 2009
186 2015
187 2015
188 2015
189 2013
190 2006
191 1998
192 1987
193 1977
194 1971
195 1965
196 1955
197 1954
198 1954
199 1957
200 1965
201 1977
202 1988
203 2000
204 2015
205 2028
206 2041
207 2049
208 2062
209 2077
210 2088
211 2088
212 2090
213 2099
214 2109
215 2122
216 2136
217 2155
218 2173
219 2190
220 2214
221 2242
222 2271
223 2292
224 2310
225 2323
226 2324
227 2306
228 2278
229 2250
230 2220
231 2188
232 2154
233 2122
234 2094
235 2069
236 2040
237 2016
238 1990
239 1962
240 1941
241 1925
242 1918
243 1912
244 1910
245 1910
246 1915
247 1919
248 1922
249 1923
250 1921
251 1923
252 1925
253 1925
254 1920
255 1922
256 1919
257 1921
258 1926
259 1931
260 1941
261 1953
262 1964
263 1974
264 1982
265 1989
266 2001
267 2007
268 2011
269 2015
270 2012
271 2006
272 2000
273 1993
274 1986
275 1985
276 1974
277 1965
278 1961
279 1962
280 1965
281 1972
282 1980
283 1987
284 1996
285 2002
286 2010
287 2015
288 2019
289 2018
290 2014
291 2006
292 1997
293 1989
294 1982
295 1977
296 1968
297 1964
298 1962
299 1960
300 1965
301 1976
302 1987
303 1996
304 2004
305 2009
306 2015
307 2017
308 2020
309 2023
310 2019
311 2012
312 2005
313 1995
314 1984
315 1980
316 1975
317 1974
318 1975
319 1975
320 1977
321 1984
322 1993
323 1999
324 2007
325 2012
326 2021
327 2027
328 2025
329 2024
330 2019
331 2010
332 2000
333 1992
334 1985
335 1979
336 1971
337 1969
338 1971
339 1969
340 1975
341 1984
342 1992
343 2002
344 2010
345 2015
346 2025
347 2031
348 2031
349 2034
350 2027
351 2019
352 2009
353 1997
354 1988
355 1981
356 1973
357 1971
358 1972
359 1970
360 1974
361 1981
362 1992
363 2001
364 2011
365 2016
366 2027
367 2033
368 2038
369 2039
370 2032
371 2026
372 2020
373 2014
374 2007
375 2001
376 1993
377 1986
378 1985
379 1982
380 1988
381 1990
382 1997
383 2007
384 2015
385 2018
386 2027
387 2031
388 2032
389 2036
390 2032
391 2027
392 2020
393 2015
394 2009
395 2005
396 1997
397 1992
398 1990
399 1990
400 1995
401 2002
402 2009
403 2018
404 2031
405 2033
406 2037
407 2045
408 2046
409 2044
410 2044
411 2042
412 2034
413 2026
414 2018
415 2013
416 2006
417 2002
418 2001
419 1997
420 1999
421 2005
422 2013
423 2023
424 2031
425 2038
426 2048
427 2058
428 2059
429 2062
430 2061
431 2054
432 2044
433 2034
434 2022
435 2016
436 2008
437 2003
438 2004
439 2002
440 2005
441 2012
442 2020
443 2025
444 2032
445 2036
446 2047
447 2056
448 2057
449 2060
450 2057
451 2051
452 2043
453 2034
454 2024
455 2018
456 2013
457 2010
458 2009
459 2004
460 2006
461 2010
462 2016
463 2026
464 2038
465 2045
466 2053
467 2063
468 2066
469 2066
470 2064
471 2059
472 2053
473 2043
474 2035
475 2029
476 2021
477 2012
478 2012
479 2009
480 2009
481 2016
482 2022
483 2027
484 2033
485 2040
486 2046
487 2056
488 2056
489 2057
490 2057
491 2053
492 2047
493 2037
494 2030
495 2023
496 2016
497 2008
498 2006
499 2004
500 2005
501 2007
502 2012
503 2020
504 2028
505 2036
506 2041
507 2046
508 2046
509 2047
510 2044
511 2036
512 2030
513 2023
514 2016
515 2010
516 2004
517 1990
518 1984
519 1980
520 1981
521 1987
522 1992
523 1998
524 2008
525 2015
526 2020
527 2025
528 2029
529 2032
530 2027
531 2021
532 2015
533 2006
534 1998
535 1993
536 1989
537 1981
538 1977
539 1974
540 1975
541 1981
542 1989
543 1999
544 2006
545 2011
546 2017
547 2026
548 2029
549 2028
550 2028
551 2021
552 2014
553 2006
554 2002
555 1997
556 1991
557 1981
558 1976
559 1976
560 1980
561 1986
562 1992
563 2001
564 2009
565 2015
566 2024
567 2029
568 2028
569 2027
570 2025
571 2020
572 2018
573 2011
574 2002
575 1992
576 1985
577 1975
578 1974
579 1973
580 1972
581 1980
582 1987
583 1996
584 2004
585 2013
586 2020
587 2032
588 2034
589 2034
590 2034
591 2024
592 2020
593 2011
594 2001
595 1994
596 1991
597 1983
598 1980
599 1977
600 1974
601 1979
602 1985
603 1994
604 2001
605 2010
606 2015
607 2023
608 2026
609 2029
610 2033
611 2031
612 2026
613 2015
614 2005
615 1999
616 1996
617 1984
618 1979
619 1979
620 1979
621 1987
622 1992
623 1998
624 2000
625 2008
626 2016
627 2025
628 2030
629 2032
630 2032
631 2027
632 2019
633 2010
634 1999
635 1989
636 1985
637 1978
638 1974
639 1975
640 1976
641 1982
642 1983
643 1991
644 2001
645 2008
646 2012
647 2020
648 2025
649 2028
650 2028
651 2023
652 2015
653 2010
654 2007
655 1998
656 1987
657 1976
658 1972
659 1974
660 1973
661 1980
662 1985
663 1993
664 2000
665 2007
666 2010
667 2019
668 2025
669 2025
670 2029
671 2029
672 2021
673 2006
674 1997
675 1990
676 1984
677 1975
678 1971
679 1972
680 1972
681 1974
682 1977
683 1983
684 1992
685 2002
686 2006
687 2014
688 2018
689 2018
690 2022
691 2018
692 2011
693 2006
694 2001
695 1991
696 1986
697 1976
698 1971
699 1971
700 1969
701 1971
702 1980
703 1989
704 1993
705 2000
706 2005
707 2014
708 2017
709 2017
710 2020
711 2019
712 2013
713 2006
714 1998
715 1991
716 1988
717 1980
718 1975
719 1977
720 1974
721 1973
722 1978
723 1984
724 1989
725 1997
726 2004
727 2009
728 2013
729 2018
730 2020
731 2018
732 2011
733 2003
734 1994
735 1986
736 1983
737 1977
738 1971
739 1968
740 1967
741 1972
742 1979
743 1983
744 1989
745 1999
746 2006
747 2014
748 2020
749 2019
750 2019
751 2017
752 2011
753 2005
754 1996
755 1986
756 1979
757 1973
758 1967
759 1967
760 1966
761 1966
762 1971
763 1979
764 1991
765 1998
766 2005
767 2009
768 2015
769 2019
770 2018
771 2015
772 2011
773 2004
774 1995
775 1986
776 1980
777 1976
778 1969
779 1968
780 1967
781 1969
782 1975
783 1981
784 1991
785 2000
786 2005
787 2008
788 2012
789 2012
790 2016
791 2016
792 2013
793 2006
794 1998
795 1994
796 1990
797 1989
798 1985
799 1983
800 1982
801 1987
802 1995
803 2004
804 2016
805 2024
806 2033
807 2040
808 2051
809 2055
810 2060
811 2060
812 2055
813 2046
814 2034
815 2027
816 2022
817 2019
818 2011
819 2009
820 2004
821 2005
822 2009
823 2018
824 2032
825 2045
826 2053
827 2064
828 2075
829 2082
830 2086
831 2089
832 2085
833 2070
834 2058
835 2054
836 2048
837 2039
838 2029
839 2026
840 2026
841 2023
842 2022
843 2028
844 2036
845 2039
846 2045
847 2049
848 2054
849 2051
850 2047
851 2046
852 2043
853 2035
854 2027
855 2017
856 2007
857 1996
858 1985
859 1980
860 1976
861 1973
862 1975
863 1981
864 1988
865 1996
866 2000
867 2004
868 2011
869 2016
870 2019
871 2021
872 2010
873 1999
874 1989
875 1979
876 1969
877 1963
878 1956
879 1955
880 1953
881 1952
882 1957
883 1965
884 1974
885 1981
886 1990
887 1996
888 2007
889 2006
890 2004
891 2003
892 2001
893 1995
894 1986
895 1980
896 1976
897 1974
898 1965
899 1962
900 1961
901 1958
902 1963
903 1968
904 1974
905 1977
906 1980
907 1984
908 1992
909 1996
910 1998
911 2000
912 1995
913 1990
914 1983
915 1975
916 1967
917 1963
918 1955
919 1955
920 1959
921 1964
922 1977
923 1988
924 2002
925 2016
926 2033
927 2047
928 2069
929 2087
930 2104
931 2125
932 2139
933 2155
934 2166
935 2177
936 2189
937 2205
938 2214
939 2227
940 2243
941 2255
942 2270
943 2263
944 2245
945 2229
946 2214
947 2184
948 2164
949 2150
950 2136
951 2119
952 2096
953 2073
954 2049
955 2024
956 1996
957 1971
958 1946
959 1925
960 1910
961 1893
962 1886
963 1883
964 1886
965 1893
966 1902
967 1909
968 1918
969 1925
970 1931
971 1941
972 1944
973 1943
974 1939
975 1937
976 1937
977 1938
978 1935
979 1932
980 1933
981 1929
982 1934
983 1942
984 1953
985 1964
986 1974
987 1983
988 1994
989 1999
990 2001
991 2006
992 2003
993 2000
994 1996
995 1989
996 1976
997 1969
998 1958
999 1951
1000 1952
1001 1948
1002 1952
1003 1959
1004 1965
1005 1974
1006 1982
1007 1988
1008 2000
1009 2005
1010 2007
1011 2010
1012 2008
1013 2002
1014 1997
1015 1992
1016 1984
1017 1977
1018 1967
1019 1961
1020 1958
1021 1954
1022 1953
1023 1958
1024 1960
1025 1969
1026 1980
1027 1989
1028 1997
1029 2003
1030 2006
1031 2009
1032 2005
1033 2000
1034 1995
1035 1988
1036 1980
1037 1974
1038 1966
1039 1958
1040 1957
1041 1956
1042 1961
1043 1967
1044 1975
1045 1982
1046 1989
1047 1997
1048 2006
1049 2008
1050 2005
1051 2008
1052 2005
1053 2000
1054 1993
1055 1985
1056 1978
1057 1975
1058 1968
1059 1963
1060 1965
1061 1962
1062 1965
1063 1971
1064 1979
1065 1987
1066 1998
1067 2004
1068 2011
1069 2015
1070 2013
1071 2012
1072 2012
1073 2010
1074 2004
1075 1994
1076 1989
1077 1983
1078 1972
1079 1968
1080 1970
1081 1971
1082 1971
1083 1974
1084 1979
1085 1990
1086 2000
1087 2009
1088 2013
1089 2017
1090 2020
1091 2022
1092 2016
1093 2008
1094 2001
1095 1994
1096 1987
1097 1981
1098 1977
1099 1972
1100 1967
1101 1965
1102 1969
1103 1978
1104 1987
1105 1999
1106 2006
1107 2012
1108 2018
1109 2024
1110 2022
1111 2023
1112 2025
1113 2020
1114 2016
1115 2009
1116 2002
1117 1996
1118 1992
1119 1986
1120 1984
1121 1981
1122 1976
1123 1980
1124 1990
1125 1999
1126 2008
1127 2019
1128 2023
1129 2028
1130 2028
1131 2030
1132 2029
1133 2025
1134 2018
1135 2012
1136 2006
1137 1998
1138 1992
1139 1985
1140 1983
1141 1983
1142 1985
1143 1992
1144 2001
1145 2012
1146 2019
1147 2022
1148 2025
1149 2035
1150 2040
1151 2038
1152 2036
1153 2031
1154 2024
1155 2015
1156 2009
1157 2005
1158 2003
1159 2002
1160 2003
1161 2006
1162 1998
1163 1999
1164 2005
1165 2013
1166 2021
1167 2026
1168 2029
1169 2036
1170 2039
1171 2037
1172 2038
1173 2036
1174 2030
1175 2023
1176 2017
1177 2011
1178 2007
1179 2000
1180 2001
1181 2000
1182 2000
1183 2001
1184 2001
1185 2008
1186 2020
1187 2029
1188 2035
1189 2045
1190 2045
1191 2047
1192 2047
1193 2036
1194 2022
1195 2015
1196 2010
1197 2006
1198 2007
1199 1999
1200 1996
1201 1994
1202 1994
1203 2000
1204 2007
1205 2015
1206 2023
1207 2034
1208 2040
1209 2050
1210 2055
1211 2053
1212 2049
1213 2039
1214 2030
1215 2021
1216 2012
1217 2002
1218 1994
1219 1985
1220 1979
1221 1979
1222 1978
1223 1984
1224 1994
1225 2002
1226 2008
1227 2017
1228 2023
1229 2032
1230 2035
1231 2032
1232 2031
1233 2025
1234 2019
1235 2007
1236 1996
1237 1988
1238 1984
1239 1975
1240 1969
1241 1967
1242 1966
1243 1969
1244 1975
1245 1985
1246 1992
1247 2000
1248 2003
1249 2010
1250 2012
1251 2013
1252 2018
1253 2014
1254 2007
1255 1998
1256 1987
1257 1977
1258 1973
1259 1967
1260 1964
1261 1962
1262 1962
1263 1968
1264 1974
1265 1982
1266 1987
1267 1993
1268 1996
1269 2006
1270 2012
1271 2014
1272 2016
1273 2011
1274 2003
1275 1997
1276 1990
1277 1983
1278 1979
1279 1971
1280 1963
1281 1959
1282 1955
1283 1960
1284 1967
1285 1974
1286 1981
1287 1989
1288 1996
1289 2008
1290 2013
1291 2013
1292 2015
1293 2012
1294 2008
1295 1996
1296 1990
1297 1986
1298 1981
1299 1972
1300 1966
1301 1968
1302 1966
1303 1968
1304 1973
1305 1980
1306 1987
1307 1996
1308 1999
1309 2010
1310 2018
1311 2016
1312 2017
1313 2015
1314 2009
1315 2000
1316 1991
1317 1983
1318 1979
1319 1972
1320 1968
1321 1965
1322 1959
1323 1962
1324 1969
1325 1977
1326 1987
1327 1998
1328 2002
1329 2008
1330 2014
1331 2015
1332 2017
1333 2013
1334 2006
1335 1998
1336 1989
1337 1981
1338 1976
1339 1969
1340 1964
1341 1965
1342 1965
1343 1970
1344 1974
1345 1982
1346 1990
1347 1997
1348 2002
1349 2008
1350 2015
1351 2015
1352 2017
1353 2014
1354 2009
1355 2001
1356 1989
1357 1982
1358 1976
1359 1969
1360 1964
1361 1963
1362 1960
1363 1963
1364 1969
1365 1977
1366 1985
1367 1992
1368 1997
1369 2004
1370 2012
1371 2012
1372 2012
1373 2012
1374 2007
1375 1999
1376 1991
1377 1984
1378 1976
1379 1969
1380 1961
1381 1959
1382 1958
1383 1960
1384 1963
1385 1972
1386 1985
1387 1993
1388 1997
1389 2003
1390 2010
1391 2008
1392 2010
1393 2009
1394 2005
1395 1998
1396 1990
1397 1981
1398 1973
1399 1967
1400 1960
1401 1959
1402 1958
1403 1960
1404 1966
1405 1974
1406 1981
1407 1988
1408 1994
1409 1999
1410 2007
1411 2009
1412 2011
1413 2010
1414 2004
1415 1996
1416 1985
1417 1975
1418 1968
1419 1963
1420 1957
1421 1956
1422 1953
1423 1953
1424 1958
1425 1967
1426 1979
1427 1992
1428 2001
1429 2008
1430 2017
1431 2018
1432 2016
1433 2011
1434 2004
1435 1995
1436 1986
1437 1979
1438 1971
1439 1966
1440 1957
1441 1953
1442 1950
1443 1951
1444 1957
1445 1963
1446 1971
1447 1982
1448 1992
1449 1996
1450 2005
1451 2006
1452 2006
1453 2006
1454 2002
1455 1994
1456 1983
1457 1976
1458 1973
1459 1969
1460 1958
1461 1955
1462 1953
1463 1954
1464 1960
1465 1965
1466 1976
1467 1985
1468 1989
1469 1990
1470 1997
1471 2001
1472 2004
1473 2004
1474 2000
1475 1994
1476 1986
1477 1982
1478 1975
1479 1969
1480 1957
1481 1956
1482 1954
1483 1953
1484 1960
1485 1972
1486 1982
1487 1978
1488 1983
1489 1989
1490 1998
1491 1998
1492 2000
1493 2001
1494 1999
1495 1994
1496 1986
1497 1976
1498 1967
1499 1963
1500 1955
1501 1952
1502 1955
1503 1960
1504 1971
1505 1983
1506 1995
1507 2003
1508 2009
1509 2017
1510 2027
1511 2035
1512 2039
1513 2043
1514 2038
1515 2032
1516 2023
1517 2014
1518 2008
1519 2006
1520 1999
1521 1998
1522 2000
1523 1999
1524 2003
1525 2009
1526 2020
1527 2027
1528 2036
1529 2040
1530 2048
1531 2055
1532 2062
1533 2067
1534 2064
1535 2058
1536 2050
1537 2046
1538 2041
1539 2037
1540 2028
1541 2023
1542 2020
1543 2017
1544 2022
1545 2031
1546 2039
1547 2046
1548 2052
1549 2056
1550 2064
1551 2066
1552 2064
1553 2061
1554 2055
1555 2047
1556 2034
1557 2016
1558 2005
1559 1996
1560 1985
1561 1980
1562 1977
1563 1974
1564 1976
1565 1979
1566 1987
1567 1996
1568 2002
1569 2004
1570 2010
1571 2013
1572 2013
1573 2017
1574 2009
1575 2002
1576 1992
1577 1981
1578 1972
1579 1967
1580 1959
1581 1953
1582 1952
1583 1949
1584 1953
1585 1960
1586 1970
1587 1977
1588 1983
1589 1984
1590 1989
1591 1993
1592 1994
1593 1997
1594 1996
1595 1991
1596 1984
1597 1974
1598 1965
1599 1959
1600 1951
1601 1946
1602 1944
1603 1945
1604 1953
1605 1960
1606 1965
1607 1972
1608 1980
1609 1989
1610 1995
1611 1997
1612 1997
1613 1999
1614 1996
1615 1990
1616 1982
1617 1972
1618 1963
1619 1955
1620 1944
1621 1935
1622 1936
1623 1938
1624 1938
1625 1943
1626 1955
1627 1969
1628 1982
1629 1993
1630 2004
1631 2017
1632 2025
1633 2037
1634 2042
1635 2054
1636 2060
1637 2066
1638 2072
1639 2085
1640 2096
1641 2108
1642 2127
1643 2146
1644 2171
1645 2200
1646 2229
1647 2253
1648 2275
1649 2296
1650 2317
1651 2326
1652 2312
1653 2290
1654 2256
1655 2223
1656 2189
1657 2155
1658 2123
1659 2094
1660 2066
1661 2038
1662 2014
1663 1990
1664 1971
1665 1949
1666 1929
1667 1914
1668 1905
1669 1899
1670 1900
1671 1903
1672 1902
1673 1907
1674 1910
1675 1908
1676 1906
1677 1901
1678 1901
1679 1903
1680 1906
1681 1908
1682 1913
1683 1917
1684 1921
1685 1929
1686 1942
1687 1957
1688 1966
1689 1973
1690 1984
1691 1993
1692 1999
1693 2005
1694 2002
1695 1998
1696 1991
1697 1982
1698 1971
1699 1964
1700 1958
1701 1951
1702 1947
1703 1941
1704 1941
1705 1949
1706 1958
1707 1972
1708 1986
1709 1993
1710 1998
1711 2001
1712 1998
1713 2000
1714 2000
1715 1996
1716 1985
1717 1977
1718 1972
1719 1967
1720 1958
1721 1949
1722 1948
1723 1948
1724 1948
1725 1952
1726 1958
1727 1967
1728 1979
1729 1989
1730 1997
1731 2003
1732 2003
1733 2005
1734 2007
1735 2002
1736 1994
1737 1985
1738 1979
1739 1973
1740 1969
1741 1958
1742 1956
1743 1952
1744 1951
1745 1957
1746 1964
1747 1974
1748 1980
1749 1992
1750 2000
1751 2008
1752 2009
1753 2011
1754 2010
1755 2003
1756 1994
1757 1987
1758 1983
1759 1979
1760 1973
1761 1964
1762 1959
1763 1959
1764 1960
1765 1964
1766 1970
1767 1980
1768 1990
1769 1995
1770 2000
1771 2006
1772 2009
1773 2011
1774 2012
1775 2008
1776 2002
1777 1993
1778 1985
1779 1979
1780 1974
1781 1963
1782 1960
1783 1961
1784 1962
1785 1969
1786 1976
1787 1986
1788 1994
1789 2005
1790 2010
1791 2013
1792 2012
1793 2013
1794 2018
1795 2016
1796 2012
1797 2004
1798 1996
1799 1989
1800 1987
1801 1974
1802 1966
1803 1966
1804 1966
1805 1976
1806 1987
1807 1998
1808 2006
1809 2013
1810 2015
1811 2023
1812 2025
1813 2025
1814 2028
1815 2024
1816 2017
1817 2011
1818 2001
1819 1991
1820 1986
1821 1978
1822 1977
1823 1979
1824 1976
1825 1981
1826 1988
1827 1997
1828 2006
1829 2014
1830 2022
1831 2033
1832 2036
1833 2037
1834 2037
1835 2033
1836 2029
1837 2019
1838 2009
1839 2002
1840 1998
1841 1988
1842 1983
1843 1987
1844 1988
1845 1992
1846 1999
1847 2007
1848 2013
1849 2023
1850 2027
1851 2035
1852 2037
1853 2035
1854 2039
1855 2037
1856 2036
1857 2029
1858 2022
1859 2013
1860 2009
1861 2001
1862 1995
1863 1993
1864 1990
1865 1996
1866 2004
1867 2014
1868 2024
1869 2033
1870 2041
1871 2051
1872 2058
1873 2058
1874 2061
1875 2052
1876 2045
1877 2035
1878 2024
1879 2016
1880 2014
1881 2002
1882 1997
1883 1996
1884 1992
1885 1998
1886 2000
1887 2010
1888 2014
1889 2024
1890 2035
1891 2047
1892 2051
1893 2051
1894 2056
1895 2055
1896 2049
1897 2037
1898 2028
1899 2017
1900 2011
1901 2004
1902 2001
1903 1999
1904 1997
1905 2000
1906 2007
1907 2010
1908 2016
1909 2025
1910 2030
1911 2039
1912 2047
1913 2048
1914 2049
1915 2043
1916 2037
1917 2031
1918 2025
1919 2017
1920 2012
1921 2003
1922 1992
1923 1988
1924 1983
1925 1987
1926 1994
1927 2003
1928 2012
1929 2018
1930 2023
1931 2029
1932 2036
1933 2033
1934 2034
1935 2030
1936 2023
1937 2017
1938 2010
1939 2000
1940 1995
1941 1989
1942 1982
1943 1978
1944 1975
1945 1980
1946 1984
1947 1984
1948 1989
1949 1995
1950 2002
1951 2009
1952 2016
1953 2015
1954 2020
1955 2017
1956 2010
1957 2002
1958 1996
1959 1989
1960 1982
1961 1972
1962 1962
1963 1961
1964 1960
1965 1962
1966 1966
1967 1972
1968 1981
1969 1990
1970 1999
1971 2006
1972 2014
1973 2012
1974 2014
1975 2012
1976 2008
1977 2000
1978 1991
1979 1982
1980 1977
1981 1971
1982 1963
1983 1964
1984 1964
1985 1962
1986 1966
1987 1977
1988 1987
1989 1994
1990 2004
1991 2010
1992 2020
1993 2020
1994 2018
1995 2012
1996 2005
1997 1998
1998 1992
1999 1987
2000 1983
2001 1979
2002 1972
2003 1969
2004 1969
2005 1970
2006 1977
2007 1984
2008 1995
2009 2009
2010 2012
2011 2017
2012 2023
2013 2024
2014 2027
2015 2026
2016 2017
2017 2009
2018 1997
2019 1988
2020 1985
2021 1982
2022 1970
2023 1963
2024 1960
2025 1961
2026 1964
2027 1973
2028 1984
2029 1992
2030 2001
2031 2009
2032 2018
2033 2019
2034 2024
2035 2021
2036 2014
2037 2010
2038 2003
2039 1993
2040 1982
2041 1974
2042 1965
2043 1964
2044 1964
2045 1968
2046 1973
2047 1982
2048 1992
2049 1998
2050 2005
2051 2009
2052 2017
2053 2019
2054 2017
2055 2019
2056 2017
2057 2008
2058 1998
2059 1992
2060 1984
2061 1980
2062 1973
2063 1971
2064 1972
2065 1973
2066 1979
2067 1986
2068 1991
2069 1995
2070 2002
2071 2005
2072 2013
2073 2019
2074 2024
2075 2021
2076 2012
2077 2005
2078 1996
2079 1989
2080 1981
2081 1975
2082 1967
2083 1965
2084 1966
2085 1964
2086 1968
2087 1974
2088 1984
2089 1993
2090 2001
2091 2003
2092 2016
2093 2024
2094 2023
2095 2022
2096 2019
2097 2011
2098 1998
2099 1987
2100 1979
2101 1975
2102 1967
2103 1964
2104 1963
2105 1963
2106 1967
2107 1973
2108 1982
2109 1989
2110 1996
2111 2001
2112 2008
2113 2011
2114 2012
2115 2012
2116 2011
2117 2007
2118 1999
2119 1993
2120 1985
2121 1979
2122 1969
2123 1962
2124 1961
2125 1958
2126 1963
2127 1971
2128 1978
2129 1986
2130 1992
2131 1998
2132 2007
2133 2013
2134 2012
2135 2016
2136 2015
2137 2010
2138 2000
2139 1991
2140 1983
2141 1979
2142 1970
2143 1962
2144 1962
2145 1961
2146 1963
2147 1966
2148 1972
2149 1980
2150 1988
2151 1995
2152 2006
2153 2012
2154 2013
2155 2017
2156 2014
2157 2007
2158 1997
2159 1990
2160 1981
2161 1976
2162 1969
2163 1966
2164 1963
2165 1961
2166 1963
2167 1968
2168 1977
2169 1983
2170 1990
2171 1993
2172 2001
2173 2005
2174 2008
2175 2011
2176 2007
2177 2003
2178 1998
2179 1991
2180 1986
2181 1980
2182 1970
2183 1963
2184 1963
2185 1961
2186 1966
2187 1972
2188 1979
2189 1982
2190 1988
2191 1995
2192 2004
2193 2009
2194 2010
2195 2014
2196 2013
2197 2007
2198 1999
2199 1990
2200 1980
2201 1973
2202 1964
2203 1959
2204 1960
2205 1960
2206 1968
2207 1975
2208 1982
2209 1990
2210 2000
2211 2009
2212 2021
2213 2030
2214 2035
2215 2041
2216 2040
2217 2035
2218 2030
2219 2024
2220 2018
2221 2016
2222 2013
2223 2006
2224 2002
2225 1998
2226 1999
2227 2003
2228 2014
2229 2028
2230 2038
2231 2040
2232 2046
2233 2053
2234 2056
2235 2061
2236 2061
2237 2059
2238 2054
2239 2051
2240 2046
2241 2042
2242 2038
2243 2033
2244 2030
2245 2027
2246 2029
2247 2034
2248 2043
2249 2051
2250 2060
2251 2066
2252 2074
2253 2078
2254 2076
2255 2079
2256 2078
2257 2068
2258 2057
2259 2044
2260 2030
2261 2020
2262 2010
2263 2000
2264 1997
2265 1994
2266 1991
2267 1992
2268 2000
2269 2011
2270 2018
2271 2021
2272 2025
2273 2028
2274 2028
2275 2029
2276 2027
2277 2017
2278 2006
2279 1996
2280 1986
2281 1977
2282 1972
2283 1964
2284 1962
2285 1959
2286 1957
2287 1963
2288 1972
2289 1980
2290 1983
2291 1987
2292 1991
2293 2004
2294 2009
2295 2009
2296 2007
2297 2002
2298 1993
2299 1982
2300 1976
2301 1970
2302 1967
2303 1960
2304 1957
2305 1952
2306 1952
2307 1959
2308 1967
2309 1980
2310 1988
2311 1991
2312 1995
2313 2004
2314 2004
2315 2005
2316 2005
2317 1997
2318 1986
2319 1978
2320 1971
2321 1964
2322 1958
2323 1948
2324 1947
2325 1946
2326 1949
2327 1960
2328 1969
2329 1973
2330 1983
2331 1994
2332 2004
2333 2016
2334 2020
2335 2024
2336 2026
2337 2026
2338 2025
2339 2022
2340 2021
2341 2026
2342 2036
2343 2044
2344 2058
2345 2076
2346 2098
2347 2125
2348 2155
2349 2184
2350 2215
2351 2244
2352 2270
2353 2296
2354 2312
2355 2329
2356 2343
2357 2343
2358 2324
2359 2291
2360 2250
2361 2216
2362 2187
2363 2150
2364 2120
2365 2090
2366 2065
2367 2045
2368 2028
2369 2010
2370 1991
2371 1967
2372 1942
2373 1927
2374 1913
2375 1905
2376 1900
2377 1896
2378 1888
2379 1882
2380 1879
2381 1881
2382 1887
2383 1885
2384 1890
2385 1899
2386 1910
2387 1923
2388 1935
2389 1946
2390 1955
2391 1968
2392 1979
2393 1995
2394 2000
2395 1998
2396 2002
2397 2001
2398 1996
2399 1989
2400 1980
2401 1975
2402 1971
2403 1962
2404 1957
2405 1956
2406 1955
2407 1965
2408 1968
2409 1969
2410 1977
2411 1986
2412 1990
2413 2001
2414 2006
2415 2009
2416 2013
2417 2007
2418 2000
2419 1990
2420 1981
2421 1976
2422 1972
2423 1960
2424 1951
2425 1948
2426 1946
2427 1955
2428 1964
2429 1975
2430 1984
2431 1993
2432 2000
2433 2006
2434 2011
2435 2013
2436 2013
2437 2005
2438 2002
2439 1997
2440 1989
2441 1982
2442 1979
2443 1970
2444 1967
2445 1965
2446 1959
2447 1965
2448 1975
2449 1983
2450 1992
2451 2000
2452 2001
2453 2008
2454 2012
2455 2012
2456 2014
2457 2010
2458 2006
2459 1997
2460 1990
2461 1981
2462 1975
2463 1968
2464 1967
2465 1967
2466 1964
2467 1969
2468 1976
2469 1986
2470 1995
2471 2005
2472 2008
2473 2012
2474 2013
2475 2011
2476 2011
2477 2013
2478 2016
2479 2010
2480 2000
2481 1990
2482 1982
2483 1973
2484 1966
2485 1965
2486 1963
2487 1966
2488 1975
2489 1985
2490 1989
2491 2001
2492 2009
2493 2020
2494 2026
2495 2028
2496 2028
2497 2026
2498 2017
2499 2008
2500 2000
2501 1991
2502 1988
2503 1982
2504 1976
2505 1975
2506 1973
2507 1974
2508 1982
2509 1992
2510 2001
2511 2010
2512 2015
2513 2023
2514 2030
2515 2031
2516 2036
2517 2037
2518 2030
2519 2019
2520 2011
2521 2001
2522 1996
2523 1988
2524 1984
2525 1986
2526 1986
2527 1987
2528 1990
2529 1998
2530 2007
2531 2017
2532 2026
2533 2032
2534 2037
2535 2039
2536 2043
2537 2040
2538 2034
2539 2026
2540 2017
2541 2008
2542 2003
2543 1995
2544 1989
2545 1987
2546 1985
2547 1989
2548 1997
2549 2007
2550 2020
2551 2030
2552 2037
2553 2047
2554 2055
2555 2056
2556 2059
2557 2053
2558 2047
2559 2038
2560 2028
2561 2019
2562 2011
2563 2004
2564 2000
2565 2003
2566 2002
2567 2004
2568 2008
2569 2016
2570 2026
2571 2036
2572 2043
2573 2047
2574 2052
2575 2054
2576 2055
2577 2053
2578 2047
2579 2038
2580 2030
2581 2024
2582 2020
2583 2018
2584 2016
2585 2020
2586 2021
2587 2021
2588 2024
2589 2029
2590 2039
2591 2051
2592 2062
2593 2072
2594 2082
2595 2086
2596 2091
2597 2089
2598 2081
2599 2069
2600 2053
2601 2035
2602 2022
2603 2010
2604 1997
2605 1996
2606 1993
2607 1991
2608 1999
2609 2010
2610 2021
2611 2027
2612 2033
2613 2039
2614 2046
2615 2049
2616 2055
2617 2054
2618 2048
2619 2042
2620 2030
2621 2021
2622 2012
2623 2005
2624 1997
2625 1995
2626 1995
2627 1995
2628 2000
2629 2009
2630 2019
2631 2024
2632 2028
2633 2034
2634 2040
2635 2038
2636 2037
2637 2037
2638 2033
2639 2024
2640 2011
2641 2001
2642 1994
2643 1986
2644 1978
2645 1975
2646 1972
2647 1970
2648 1976
2649 1985
2650 1995
2651 2004
2652 2013
2653 2018
2654 2023
2655 2024
2656 2023
2657 2023
2658 2018
2659 2011
2660 2003
2661 1997
2662 1990
2663 1981
2664 1970
2665 1970
2666 1970
2667 1968
2668 1972
2669 1976
2670 1983
2671 1991
2672 1998
2673 2003
2674 2013
2675 2018
2676 2021
2677 2022
2678 2012
2679 2008
2680 2000
2681 1989
2682 1976
2683 1969
2684 1961
2685 1956
2686 1955
2687 1953
2688 1959
2689 1968
2690 1979
2691 1988
2692 1998
2693 2003
2694 2013
2695 2019
2696 2025
2697 2025
2698 2017
2699 2008
2700 1998
2701 1989
2702 1980
2703 1979
2704 1971
2705 1969
2706 1968
2707 1963
2708 1966
2709 1971
2710 1979
2711 1986
2712 1995
2713 1999
2714 2011
2715 2016
2716 2018
2717 2022
2718 2017
2719 2011
2720 2007
2721 1998
2722 1986
2723 1982
2724 1974
2725 1970
2726 1969
2727 1968
2728 1967
2729 1974
2730 1986
2731 1992
2732 1999
2733 2003
2734 2016
2735 2021
2736 2022
2737 2026
2738 2022
2739 2012
2740 2002
2741 1994
2742 1988
2743 1984
2744 1974
2745 1970
2746 1967
2747 1964
2748 1969
2749 1976
2750 1987
2751 1998
2752 2005
2753 2006
2754 2016
2755 2025
2756 2028
2757 2030
2758 2023
2759 2012
2760 2002
2761 1996
2762 1994
2763 1989
2764 1977
2765 1972
2766 1970
2767 1964
2768 1969
2769 1979
2770 1990
2771 2001
2772 2008
2773 2007
2774 2011
2775 2019
2776 2022
2777 2024
2778 2020
2779 2014
2780 2008
2781 2001
2782 1995
2783 1990
2784 1977
2785 1971
2786 1971
2787 1964
2788 1963
2789 1971
2790 1984
2791 1993
2792 1999
2793 2005
2794 2016
2795 2022
2796 2023
2797 2025
2798 2019
2799 2012
2800 2003
2801 1994
2802 1984
2803 1978
2804 1969
2805 1962
2806 1962
2807 1960
2808 1965
2809 1973
2810 1980
2811 1990
2812 2003
2813 2006
2814 2013
2815 2015
2816 2017
2817 2021
2818 2018
2819 2012
2820 2003
2821 1994
2822 1989
2823 1981
2824 1968
2825 1963
2826 1960
2827 1955
2828 1957
2829 1964
2830 1974
2831 1987
2832 1995
2833 1998
2834 2008
2835 2018
2836 2020
2837 2021
2838 2020
2839 2016
2840 2007
2841 1993
2842 1982
2843 1976
2844 1971
2845 1968
2846 1967
2847 1966
2848 1964
2849 1962
2850 1971
2851 1984
2852 1996
2853 2005
2854 2012
2855 2015
2856 2012
2857 2015
2858 2015
2859 2010
2860 2002
2861 1993
2862 1984
2863 1976
2864 1965
2865 1956
2866 1953
2867 1951
2868 1954
2869 1961
2870 1972
2871 1984
2872 1992
2873 1997
2874 2004
2875 2011
2876 2014
2877 2015
2878 2014
2879 2009
2880 2000
2881 1991
2882 1982
2883 1977
2884 1969
2885 1961
2886 1959
2887 1957
2888 1958
2889 1966
2890 1976
2891 1985
2892 1991
2893 2001
2894 2008
2895 2015
2896 2015
2897 2014
2898 2015
2899 2009
2900 2003
2901 1992
2902 1983
2903 1974
2904 1968
2905 1957
2906 1953
2907 1951
2908 1954
2909 1959
2910 1966
2911 1978
2912 1988
2913 1994
2914 1999
2915 2009
2916 2012
2917 2014
2918 2014
2919 2010
2920 2003
2921 1993
2922 1983
2923 1975
2924 1969
2925 1958
2926 1956
2927 1956
2928 1957
2929 1963
2930 1971
2931 1981
2932 1990
2933 1999
2934 2005
2935 2013
2936 2013
2937 2014
2938 2016
2939 2011
2940 2003
2941 1991
2942 1982
2943 1977
2944 1973
2945 1965
2946 1966
2947 1965
2948 1967
2949 1974
2950 1985
2951 1995
2952 2007
2953 2016
2954 2027
2955 2036
2956 2042
2957 2045
2958 2048
2959 2044
2960 2036
2961 2026
2962 2017
2963 2012
2964 2008
2965 2001
2966 1998
2967 2001
2968 2005
2969 2014
2970 2019
2971 2025
2972 2029
2973 2038
2974 2049
2975 2066
2976 2077
2977 2081
2978 2083
2979 2080
2980 2074
2981 2065
2982 2055
2983 2048
2984 2044
2985 2033
2986 2026
2987 2020
2988 2019
2989 2023
2990 2028
2991 2033
2992 2039
2993 2047
2994 2049
2995 2056
2996 2060
2997 2060
2998 2059
2999 2054
3000 2045
3001 2034
3002 2024
3003 2015
3004 2008
3005 1991
3006 1986
3007 1981
3008 1975
3009 1979
3010 1984
3011 1991
3012 2000
3013 2004
3014 2004
3015 2010
3016 2014
3017 2014
3018 2014
3019 2008
3020 1999
3021 1988
3022 1978
3023 1970
3024 1963
3025 1953
3026 1947
3027 1950
3028 1953
3029 1956
3030 1962
3031 1971
3032 1977
3033 1987
3034 1992
3035 2004
3036 2009
3037 2008
3038 2010
3039 2006
3040 1999
3041 1990
3042 1983
3043 1975
3044 1974
3045 1962
3046 1951
3047 1947
3048 1945
3049 1949
3050 1955
3051 1963
3052 1972
3053 1985
3054 1990
3055 1992
3056 1996
3057 1998
3058 2000
3059 1995
3060 1986
3061 1979
3062 1975
3063 1969
3064 1964
3065 1956
3066 1951
3067 1950
3068 1951
3069 1957
3070 1966
3071 1981
3072 1998
3073 2010
3074 2020
3075 2037
3076 2052
3077 2068
3078 2087
3079 2101
3080 2113
3081 2123
3082 2136
3083 2148
3084 2161
3085 2178
3086 2196
3087 2215
3088 2229
3089 2250
3090 2270
3091 2291
3092 2311
3093 2316
3094 2303
3095 2286
3096 2259
3097 2232
3098 2204
3099 2171
3100 2138
3101 2105
3102 2072
3103 2039
3104 2009
3105 1978
3106 1946
3107 1919
3108 1894
3109 1878
3110 1869
3111 1871
3112 1879
3113 1888
3114 1895
3115 1908
3116 1915
3117 1919
3118 1927
3119 1934
3120 1933
3121 1933
3122 1933
3123 1934
3124 1936
3125 1934
3126 1931
3127 1931
3128 1929
3129 1937
3130 1948
3131 1957
3132 1970
3133 1985
3134 1994
3135 2001
3136 2007
3137 2012
3138 2016
3139 2009
3140 1994
3141 1984
3142 1977
3143 1971
3144 1969
3145 1963
3146 1957
3147 1958
3148 1956
3149 1959
3150 1967
3151 1976
3152 1985
3153 1995
3154 2001
3155 2004
3156 2005
3157 2001
3158 2005
3159 2007
3160 2002
3161 1992
3162 1981
3163 1971
3164 1963
3165 1953
3166 1947
3167 1947
3168 1944
3169 1949
3170 1956
3171 1963
3172 1978
3173 1991
3174 1997
3175 2006
3176 2014
3177 2015
3178 2018
3179 2017
3180 2011
3181 2003
3182 1992
3183 1984
3184 1974
3185 1965
3186 1958
3187 1959
3188 1958
3189 1961
3190 1970
3191 1979
3192 1985
3193 1991
3194 1995
3195 2001
3196 2010
3197 2014
3198 2018
3199 2017
3200 2010
3201 2001
3202 1991
3203 1983
3204 1978
3205 1972
3206 1963
3207 1965
3208 1965
3209 1962
3210 1967
3211 1977
3212 1990
3213 1999
3214 2007
3215 2012
3216 2018
3217 2022
3218 2021
3219 2020
3220 2018
3221 2012
3222 2001
3223 1993
3224 1985
3225 1978
3226 1970
3227 1966
3228 1966
3229 1967
3230 1974
3231 1980
3232 1987
3233 1994
3234 2004
3235 2011
3236 2021
3237 2025
3238 2029
3239 2030
3240 2025
3241 2015
3242 2003
3243 1994
3244 1988
3245 1986
3246 1978
3247 1972
3248 1967
3249 1968
3250 1974
3251 1981
3252 1993
3253 2005
3254 2017
3255 2025
3256 2036
3257 2036
3258 2039
3259 2041
3260 2037
3261 2027
3262 2015
3263 2008
3264 2000
3265 1993
3266 1985
3267 1984
3268 1985
3269 1985
3270 1991
3271 1999
3272 2006
3273 2011
3274 2020
3275 2027
3276 2037
3277 2042
3278 2044
3279 2046
3280 2041
3281 2034
3282 2027
3283 2017
3284 2007
3285 2001
3286 1990
3287 1986
3288 1985
3289 1986
3290 1992
3291 2003
3292 2011
3293 2017
3294 2025
3295 2030
3296 2037
3297 2039
3298 2044
3299 2051
3300 2050
3301 2044
3302 2037
3303 2028
3304 2020
3305 2016
3306 2007
3307 2002
3308 2001
3309 1997
3310 2000
3311 2007
3312 2017
3313 2028
3314 2036
3315 2039
3316 2049
3317 2055
3318 2058
3319 2060
3320 2052
3321 2045
3322 2039
3323 2032
3324 2020
3325 2014
3326 2008
3327 2004
3328 2004
3329 2002
3330 2006
3331 2013
3332 2023
3333 2032
3334 2041
3335 2045
3336 2051
3337 2057
3338 2061
3339 2063
3340 2055
3341 2044
3342 2034
3343 2029
3344 2022
3345 2018
3346 2004
3347 1999
3348 2000
3349 2000
3350 2006
3351 2012
3352 2022
3353 2032
3354 2042
3355 2044
3356 2052
3357 2059
3358 2062
3359 2058
3360 2049
3361 2044
3362 2033
3363 2022
3364 2011
3365 2003
3366 1990
3367 1984
3368 1981
3369 1976
3370 1981
3371 1989
3372 1999
3373 2006
3374 2013
3375 2017
3376 2027
3377 2032
3378 2031
3379 2033
3380 2032
3381 2026
3382 2018
3383 2008
3384 1996
3385 1987
3386 1976
3387 1969
3388 1970
3389 1967
3390 1970
3391 1978
3392 1984
3393 1990
3394 1996
3395 2001
3396 2012
3397 2019
3398 2019
3399 2021
3400 2019
3401 2010
3402 2003
3403 1993
3404 1981
3405 1976
3406 1969
3407 1965
3408 1962
3409 1960
3410 1966
3411 1972
3412 1979
3413 1984
3414 1993
3415 2000
3416 2010
3417 2013
3418 2012
3419 2015
3420 2013
3421 2007
3422 1999
3423 1989
3424 1982
3425 1974
3426 1965
3427 1956
3428 1955
3429 1953
3430 1957
3431 1966
3432 1977
3433 1986
3434 1995
3435 2003
3436 2013
3437 2019
3438 2022
3439 2026
3440 2023
3441 2015
3442 2004
3443 1992
3444 1982
3445 1975
3446 1965
3447 1958
3448 1961
3449 1957
3450 1960
3451 1968
3452 1976
3453 1986
3454 1997
3455 2001
3456 2009
3457 2017
3458 2020
3459 2021
3460 2019
3461 2015
3462 2006
3463 1994
3464 1984
3465 1977
3466 1973
3467 1968
3468 1965
3469 1959
3470 1959
3471 1967
3472 1977
3473 1990
3474 2002
3475 2010
3476 2017
3477 2023
3478 2026
3479 2030
3480 2027
3481 2018
3482 2008
3483 1995
3484 1984
3485 1977
3486 1970
3487 1963
3488 1963
3489 1961
3490 1962
3491 1970
3492 1978
3493 1990
3494 2000
3495 2006
3496 2014
3497 2022
3498 2022
3499 2021
3500 2020
3501 2015
3502 2008
3503 1998
3504 1988
3505 1981
3506 1973
3507 1965
3508 1964
3509 1964
3510 1965
3511 1969
3512 1977
3513 1986
3514 1997
3515 2005
3516 2013
3517 2017
3518 2017
3519 2019
3520 2024
3521 2022
3522 2014
3523 2000
3524 1993
3525 1989
3526 1983
3527 1969
3528 1962
3529 1957
3530 1956
3531 1962
3532 1971
3533 1982
3534 1993
3535 2003
3536 2009
3537 2016
3538 2016
3539 2017
3540 2018
3541 2013
3542 2007
3543 1995
3544 1987
3545 1982
3546 1978
3547 1964
3548 1957
3549 1956
3550 1958
3551 1966
3552 1972
3553 1985
3554 1996
3555 2005
3556 2009
3557 2016
3558 2020
3559 2022
3560 2021
3561 2013
3562 2002
3563 1990
3564 1982
3565 1974
3566 1968
3567 1960
3568 1956
3569 1953
3570 1948
3571 1953
3572 1962
3573 1975
3574 1985
3575 1991
3576 1997
3577 2009
3578 2010
3579 2014
3580 2010
3581 2004
3582 2000
3583 1994
3584 1986
3585 1977
3586 1972
3587 1958
3588 1951
3589 1949
3590 1949
3591 1956
3592 1965
3593 1976
3594 1988
3595 1998
3596 2002
3597 2011
3598 2016
3599 2016
3600 2016
3601 2013
3602 2006
3603 1996
3604 1985
3605 1975
3606 1972
3607 1962
3608 1958
3609 1957
3610 1956
3611 1961
3612 1969
3613 1976
3614 1984
3615 1991
3616 1997
3617 2007
3618 2011
3619 2011
3620 2014
3621 2009
3622 2001
3623 1992
3624 1983
3625 1973
3626 1966
3627 1957
3628 1953
3629 1952
3630 1950
3631 1955
3632 1965
3633 1974
3634 1982
3635 1992
3636 1997
3637 2005
3638 2009
3639 2009
3640 2011
3641 2006
3642 2000
3643 1989
3644 1981
3645 1971
3646 1964
3647 1953
3648 1949
3649 1950
3650 1949
3651 1951
3652 1960
3653 1970
3654 1980
3655 1989
3656 1994
3657 2007
3658 2013
3659 2011
3660 2011
3661 2006
3662 2002
3663 1994
3664 1985
3665 1975
3666 1970
3667 1962
3668 1960
3669 1957
3670 1951
3671 1954
3672 1960
3673 1973
3674 1978
3675 1981
3676 1984
3677 1998
3678 2004
3679 2003
3680 2003
3681 2002
3682 1997
3683 1990
3684 1985
3685 1977
3686 1973
3687 1961
3688 1953
3689 1950
3690 1947
3691 1949
3692 1955
3693 1965
3694 1973
3695 1982
3696 1989
3697 1999
3698 2006
3699 2009
3700 2013
3701 2008
3702 2003
3703 1998
3704 1990
3705 1979
3706 1971
3707 1961
3708 1952
3709 1951
3710 1953
3711 1950
3712 1956
3713 1966
3714 1976
3715 1983
3716 1987
3717 1996
3718 2003
3719 2005
3720 2008
3721 2007
3722 2001
3723 1994
3724 1990
3725 1985
3726 1980
3727 1973
3728 1969
3729 1971
3730 1972
3731 1979
3732 1984
3733 1988
3734 1999
3735 2011
3736 2020
3737 2031
3738 2042
3739 2040
3740 2046
3741 2045
3742 2038
3743 2029
3744 2019
3745 2011
3746 2006
3747 2000
3748 1991
3749 1992
3750 1989
3751 1994
3752 2004
3753 2015
3754 2031
3755 2046
3756 2057
3757 2066
3758 2073
3759 2072
3760 2075
3761 2072
3762 2065
3763 2055
3764 2045
3765 2036
3766 2027
3767 2018
3768 2008
3769 2008
3770 2003
3771 2005
3772 2009
3773 2014
3774 2022
3775 2028
3776 2033
3777 2038
3778 2044
3779 2046
3780 2046
3781 2043
3782 2037
3783 2027
3784 2015
3785 2003
3786 1993
3787 1984
3788 1974
3789 1968
3790 1959
3791 1959
3792 1964
3793 1971
3794 1980
3795 1984
3796 1990
3797 1998
3798 2006
3799 2006
3800 2005
3801 2005
3802 2001
3803 1992
3804 1982
3805 1972
3806 1964
3807 1957
3808 1946
3809 1944
3810 1947
3811 1943
3812 1947
3813 1957
3814 1967
3815 1976
3816 1982
3817 1990
3818 2001
3819 2007
3820 2009
3821 2006
3822 1996
3823 1987
3824 1977
3825 1966
3826 1961
3827 1953
3828 1946
3829 1946
3830 1944
3831 1942
3832 1949
3833 1955
3834 1959
3835 1968
3836 1978
3837 1985
3838 1995
3839 1997
3840 1999
3841 2000
3842 1994
3843 1984
3844 1974
3845 1968
3846 1964
3847 1963
3848 1958
3849 1960
3850 1964
3851 1966
3852 1978
3853 1994
3854 2017
3855 2041
3856 2063
3857 2083
3858 2112
3859 2135
3860 2157
3861 2178
3862 2195
3863 2208
3864 2218
3865 2229
3866 2240
3867 2247
3868 2246
3869 2252
3870 2249
3871 2232
3872 2217
3873 2197
3874 2182
3875 2167
3876 2148
3877 2133
3878 2126
3879 2114
3880 2098
3881 2080
3882 2058
3883 2032
3884 2000
3885 1968
3886 1939
3887 1917
3888 1894
3889 1879
3890 1871
3891 1864
3892 1864
3893 1873
3894 1881
3895 1888
3896 1900
3897 1911
3898 1924
3899 1934
3900 1942
3901 1951
3902 1956
3903 1952
3904 1946
3905 1941
3906 1938
3907 1937
3908 1931
3909 1929
3910 1929
3911 1930
3912 1936
3913 1944
3914 1958
3915 1968
3916 1979
3917 1986
3918 1998
3919 2000
3920 2000
3921 2000
3922 1997
3923 1990
3924 1982
3925 1974
3926 1966
3927 1961
3928 1947
3929 1946
3930 1951
3931 1953
3932 1955
3933 1960
3934 1967
3935 1974
3936 1981
3937 1984
3938 1996
3939 2001
3940 2002
3941 2005
3942 2003
3943 2002
3944 1988
3945 1973
3946 1957
3947 1949
3948 1943
3949 1942
3950 1943
3951 1942
3952 1949
3953 1951
3954 1959
3955 1974
3956 1986
3957 1990
3958 2000
3959 2006
3960 2005
3961 2004
3962 2000
3963 1994
3964 1985
3965 1975
3966 1967
3967 1963
3968 1953
3969 1948
3970 1946
3971 1943
3972 1947
3973 1954
3974 1962
3975 1972
3976 1985
3977 1993
3978 2002
3979 2009
3980 2011
3981 2013
3982 2008
3983 1999
3984 1992
3985 1986
3986 1978
3987 1972
3988 1959
3989 1951
3990 1949
3991 1947
3992 1956
3993 1962
3994 1969
3995 1981
3996 1991
3997 1995
3998 2005
3999 2013
4000 2015
4001 2018
4002 2015
4003 2010
4004 2000
4005 1990
4006 1985
4007 1980
4008 1970
4009 1961
4010 1955
4011 1949
4012 1952
4013 1958
4014 1969
4015 1981
4016 1990
4017 1996
4018 2009
4019 2018
4020 2019
4021 2023
4022 2018
4023 2010
4024 2003
4025 1994
4026 1986
4027 1980
4028 1970
4029 1963
4030 1963
4031 1961
4032 1964
4033 1972
4034 1984
4035 1999
4036 2007
4037 2011
4038 2021
4039 2027
4040 2026
4041 2029
4042 2024
4043 2018
4044 2009
4045 1998
4046 1991
4047 1987
4048 1980
4049 1974
4050 1975
4051 1973
4052 1971
4053 1976
4054 1984
4055 1993
4056 2004
4057 2013
4058 2022
4059 2032
4060 2035
4061 2036
4062 2032
4063 2026
4064 2022
4065 2017
4066 2009
4067 2000
4068 1988
4069 1978
4070 1975
4071 1972
4072 1979
4073 1981
4074 1988
4075 1998
4076 2009
4077 2020
4078 2032
4079 2041
4080 2043
4081 2046
4082 2047
4083 2048
4084 2036
4085 2021
4086 2011
4087 2005
4088 2000
4089 1992
4090 1987
4091 1982
4092 1983
4093 1991
4094 2004
4095 2011
4096 2017
4097 2025
4098 2034
4099 2046
4100 2048
4101 2052
4102 2050
4103 2046
4104 2034
4105 2020
4106 2012
4107 2008
4108 2005
4109 1998
4110 1993
4111 1987
4112 1988
4113 1994
4114 2000
4115 2011
4116 2023
4117 2035
4118 2041
4119 2050
4120 2056
4121 2061
4122 2060
4123 2055
4124 2046
4125 2034
4126 2023
4127 2013
4128 2004
4129 1993
4130 1988
4131 1986
4132 1987
4133 1991
4134 1999
4135 2009
4136 2014
4137 2021
4138 2029
4139 2039
4140 2045
4141 2049
4142 2051
4143 2047
4144 2041
4145 2024
4146 2015
4147 2003
4148 1991
4149 1980
4150 1975
4151 1971
4152 1971
4153 1975
4154 1983
4155 1994
4156 2004
4157 2014
4158 2017
4159 2023
4160 2027
4161 2028
4162 2025
4163 2019
4164 2011
4165 2002
4166 1989
4167 1978
4168 1971
4169 1957
4170 1953
4171 1951
4172 1948
4173 1954
4174 1962
4175 1973
4176 1984
4177 1994
4178 2000
4179 2012
4180 2016
4181 2018
4182 2018
4183 2014
4184 2005
4185 1991
4186 1981
4187 1971
4188 1960
4189 1947
4190 1945
4191 1948
4192 1947
4193 1950
4194 1959
4195 1972
4196 1985
4197 1997
4198 1999
4199 2008
4200 2013
4201 2016
4202 2016
4203 2010
4204 2001
4205 1991
4206 1980
4207 1969
4208 1963
4209 1952
4210 1948
4211 1945
4212 1945
4213 1951
4214 1961
4215 1971
4216 1981
4217 1992
4218 2000
4219 2007
4220 2012
4221 2015
4222 2016
4223 2013
4224 2008
4225 1998
4226 1984
4227 1970
4228 1963
4229 1951
4230 1946
4231 1945
4232 1945
4233 1950
4234 1960
4235 1971
4236 1982
4237 1989
4238 1993
4239 2005
4240 2011
4241 2011
4242 2013
4243 2011
4244 2006
4245 1997
4246 1990
4247 1978
4248 1971
4249 1961
4250 1955
4251 1954
4252 1953
4253 1960
4254 1968
4255 1980
4256 1989
4257 1998
4258 2001
4259 2007
4260 2008
4261 2007
4262 2008
4263 2004
4264 1998
4265 1990
4266 1983
4267 1974
4268 1969
4269 1959
4270 1958
4271 1961
4272 1960
4273 1962
4274 1963
4275 1971
4276 1978
4277 1987
4278 1992
4279 2002
4280 2009
4281 2012
4282 2014
4283 2006
4284 1999
4285 1992
4286 1987
4287 1980
4288 1973
4289 1965
4290 1961
4291 1958
4292 1955
4293 1960
4294 1963
4295 1971
4296 1980
4297 1991
4298 2002
4299 2014
4300 2019
4301 2015
4302 2017
4303 2014
4304 2008
4305 1998
4306 1987
4307 1975
4308 1970
4309 1960
4310 1953
4311 1953
4312 1948
4313 1948
4314 1951
4315 1958
4316 1968
4317 1979
4318 1985
4319 1999
4320 2006
4321 2007
4322 2012
4323 2009
4324 2002
4325 1993
4326 1985
4327 1976
4328 1968
4329 1957
4330 1947
4331 1946
4332 1943
4333 1946
4334 1953
4335 1960
4336 1972
4337 1984
4338 1994
4339 2004
4340 2010
4341 2010
4342 2012
4343 2010
4344 2004
4345 1998
4346 1989
4347 1981
4348 1973
4349 1961
4350 1949
4351 1949
4352 1946
4353 1947
4354 1954
4355 1961
4356 1967
4357 1973
4358 1979
4359 1992
4360 2004
4361 2008
4362 2008
4363 2001
4364 1996
4365 1991
4366 1981
4367 1968
4368 1962
4369 1955
4370 1949
4371 1947
4372 1945
4373 1947
4374 1952
4375 1956
4376 1963
4377 1975
4378 1984
4379 1991
4380 2000
4381 2003
4382 2005
4383 1999
4384 1991
4385 1982
4386 1972
4387 1965
4388 1964
4389 1956
4390 1945
4391 1940
4392 1939
4393 1941
4394 1945
4395 1954
4396 1963
4397 1971
4398 1978
4399 1988
4400 1999
4401 2002
4402 2007
4403 2008
4404 2003
4405 1996
4406 1985
4407 1972
4408 1963
4409 1954
4410 1944
4411 1943
4412 1945
4413 1946
4414 1946
4415 1952
4416 1963
4417 1975
4418 1983
4419 1991
4420 2000
4421 2005
4422 2006
4423 2005
4424 2002
4425 1988
4426 1974
4427 1965
4428 1956
4429 1949
4430 1940
4431 1940
4432 1940
4433 1940
4434 1945
4435 1952
4436 1963
4437 1973
4438 1981
4439 1990
4440 1999
4441 2003
4442 2005
4443 2005
4444 1997
4445 1987
4446 1976
4447 1966
4448 1959
4449 1953
4450 1944
4451 1941
4452 1939
4453 1938
4454 1943
4455 1953
4456 1961
4457 1971
4458 1981
4459 1988
4460 1998
4461 2000
4462 2002
4463 2005
4464 2001
4465 1993
4466 1975
4467 1966
4468 1959
4469 1955
4470 1946
4471 1942
4472 1940
4473 1938
4474 1943
4475 1949
4476 1956
4477 1964
4478 1979
4479 1988
4480 1998
4481 2005
4482 2010
4483 2011
4484 2000
4485 1987
4486 1976
4487 1971
4488 1960
4489 1953
4490 1942
4491 1937
4492 1938
4493 1937
4494 1941
4495 1948
4496 1958
4497 1971
4498 1984
4499 1987
4500 1997
4501 2001
4502 2002
4503 2003
4504 2000
4505 1998
4506 1991
4507 1980
4508 1971
4509 1964
4510 1947
4511 1938
4512 1932
4513 1928
4514 1932
4515 1941
4516 1951
4517 1963
4518 1975
4519 1984
4520 1997
4521 1998
4522 2001
4523 2006
4524 2005
4525 2001
4526 1996
4527 1986
4528 1980
4529 1978
4530 1970
4531 1964
4532 1964
4533 1967
4534 1975
4535 1983
4536 1992
4537 1997
4538 2005
4539 2012
4540 2029
4541 2040
4542 2040
4543 2042
4544 2037
4545 2030
4546 2021
4547 2014
4548 2008
4549 2004
4550 1995
4551 1987
4552 1986
4553 1986
4554 1995
4555 2005
4556 2016
4557 2032
4558 2047
4559 2053
4560 2065
4561 2069
4562 2067
4563 2068
4564 2066
4565 2059
4566 2047
4567 2037
4568 2027
4569 2017
4570 2004
4571 1993
4572 1989
4573 1983
4574 1980
4575 1984
4576 1992
4577 1999
4578 2005
4579 2010
4580 2021
4581 2027
4582 2026
4583 2030
4584 2021
4585 2012
4586 2003
4587 1995
4588 1982
4589 1971
4590 1958
4591 1950
4592 1943
4593 1936
4594 1939
4595 1944
4596 1954
4597 1964
4598 1977
4599 1983
4600 1992
4601 1995
4602 1995
4603 1999
4604 1995
4605 1986
4606 1976
4607 1968
4608 1961
4609 1956
4610 1943
4611 1932
4612 1928
4613 1922
4614 1930
4615 1938
4616 1946
4617 1960
4618 1974
4619 1980
4620 1991
4621 1995
4622 1995
4623 1996
4624 1990
4625 1983
4626 1973
4627 1963
4628 1954
4629 1948
4630 1935
4631 1928
4632 1930
4633 1927
4634 1928
4635 1936
4636 1946
4637 1958
4638 1966
4639 1969
4640 1978
4641 1985
4642 1992
4643 1999
4644 1998
4645 1993
4646 1989
4647 1986
4648 1983
4649 1980
4650 1974
4651 1976
4652 1987
4653 1997
4654 2012
4655 2033
4656 2056
4657 2083
4658 2114
4659 2144
4660 2174
4661 2202
4662 2226
4663 2251
4664 2270
4665 2281
4666 2284
4667 2283
4668 2278
4669 2260
4670 2229
4671 2191
4672 2162
4673 2137
4674 2116
4675 2100
4676 2087
4677 2075
4678 2061
4679 2050
4680 2042
4681 2035
4682 2018
4683 1997
4684 1972
4685 1946
4686 1921
4687 1899
4688 1881
4689 1868
4690 1860
4691 1850
4692 1850
4693 1850
4694 1855
4695 1866
4696 1879
4697 1895
4698 1911
4699 1927
4700 1941
4701 1956
4702 1963
4703 1972
4704 1974
4705 1971
4706 1966
4707 1961
4708 1952
4709 1944
4710 1939
4711 1933
4712 1932
4713 1931
4714 1933
4715 1936
4716 1944
4717 1957
4718 1969
4719 1978
4720 1985
4721 1992
4722 1992
4723 1994
4724 1992
4725 1986
4726 1981
4727 1974
4728 1967
4729 1959
4730 1951
4731 1941
4732 1935
4733 1933
4734 1936
4735 1940
4736 1948
4737 1962
4738 1973
4739 1977
4740 1984
4741 1995
4742 1999
4743 2000
4744 1995
4745 1986
4746 1980
4747 1971
4748 1962
4749 1956
4750 1951
4751 1942
4752 1940
4753 1937
4754 1940
4755 1946
4756 1953
4757 1961
4758 1971
4759 1979
4760 1987
4761 1997
4762 2001
4763 2000
4764 2001
4765 1995
4766 1987
4767 1979
4768 1972
4769 1964
4770 1952
4771 1942
4772 1940
4773 1938
4774 1937
4775 1942
4776 1949
4777 1960
4778 1970
4779 1980
4780 1986
4781 1996
4782 2004
4783 2007
4784 2009
4785 2005
4786 1995
4787 1983
4788 1975
4789 1970
4790 1964
4791 1953
4792 1948
4793 1943
4794 1941
4795 1946
4796 1954
4797 1966
4798 1972
4799 1981
4800 1992
4801 2005
4802 2008
4803 2009
4804 2011
4805 2004
4806 1995
4807 1985
4808 1979
4809 1972
4810 1968
4811 1958
4812 1953
4813 1948
4814 1945
4815 1950
4816 1960
4817 1973
4818 1984
4819 1994
4820 1999
4821 2011
4822 2015
4823 2014
4824 2018
4825 2016
4826 2011
4827 1997
4828 1986
4829 1980
4830 1975
4831 1962
4832 1960
4833 1964
4834 1964
4835 1965
4836 1968
4837 1977
4838 1986
4839 1997
4840 2004
4841 2018
4842 2024
4843 2025
4844 2027
4845 2025
4846 2021
4847 2012
4848 2003
4849 1991
4850 1986
4851 1973
4852 1965
4853 1962
4854 1957
4855 1961
4856 1969
4857 1982
4858 1998
4859 2013
4860 2020
4861 2032
4862 2036
4863 2036
4864 2036
4865 2029
4866 2019
4867 2012
4868 2004
4869 1994
4870 1990
4871 1980
4872 1976
4873 1975
4874 1971
4875 1972
4876 1977
4877 1987
4878 1999
4879 2012
4880 2021
4881 2033
4882 2043
4883 2045
4884 2046
4885 2041
4886 2033
4887 2024
4888 2017
4889 2007
4890 1999
4891 1990
4892 1983
4893 1980
4894 1980
4895 1987
4896 1997
4897 2006
4898 2016
4899 2024
4900 2030
4901 2041
4902 2046
4903 2046
4904 2048
4905 2043
4906 2039
4907 2033
4908 2023
4909 2012
4910 2004
4911 1993
4912 1987
4913 1983
4914 1983
4915 1990
4916 1997
4917 2006
4918 2016
4919 2026
4920 2032
4921 2041
4922 2047
4923 2049
4924 2049
4925 2043
4926 2037
4927 2026
4928 2016
4929 2008
4930 2004
4931 1994
4932 1986
4933 1985
4934 1981
4935 1986
4936 1988
4937 1993
4938 2004
4939 2013
4940 2019
4941 2028
4942 2034
4943 2036
4944 2039
4945 2032
4946 2026
4947 2016
4948 2007
4949 1996
4950 1986
4951 1976
4952 1966
4953 1963
4954 1961
4955 1964
4956 1965
4957 1969
4958 1981
4959 1992
4960 1999
4961 2008
4962 2016
4963 2017
4964 2019
4965 2015
4966 2009
4967 1999
4968 1989
4969 1980
4970 1973
4971 1964
4972 1957
4973 1957
4974 1952
4975 1950
4976 1954
4977 1964
4978 1973
4979 1980
4980 1987
4981 1995
4982 2000
4983 2000
4984 2005
4985 2006
4986 2000
4987 1991
4988 1978
4989 1967
4990 1961
4991 1952
4992 1945
4993 1946
4994 1945
4995 1949
4996 1953
4997 1957
4998 1968
4999 1977
5000 1983
5001 1992
5002 2000
5003 1996
5004 1994
5005 1992
5006 1987
5007 1982
5008 1973
5009 1965
5010 1958
5011 1948
5012 1937
5013 1936
5014 1939
5015 1943
5016 1949
5017 1955
5018 1968
5019 1977
5020 1985
5021 1994
5022 2003
5023 2004
5024 2006
5025 2007
5026 2001
5027 1990
5028 1977
5029 1968
5030 1962
5031 1955
5032 1945
5033 1944
5034 1943
5035 1942
5036 1945
5037 1953
5038 1966
5039 1979
5040 1990
5041 1997
5042 2007
5043 2008
5044 2007
5045 2008
5046 2004
5047 1997
5048 1987
5049 1980
5050 1973
5051 1968
5052 1951
5053 1944
5054 1938
5055 1936
5056 1940
5057 1950
5058 1963
5059 1973
5060 1980
5061 1988
5062 2000
5063 2005
5064 2008
5065 2010
5066 2002
5067 1992
5068 1983
5069 1978
5070 1972
5071 1967
5072 1960
5073 1957
5074 1952
5075 1949
5076 1954
5077 1962
5078 1972
5079 1980
5080 1987
5081 1992
5082 1998
5083 2001
5084 2004
5085 2005
5086 1997
5087 1988
5088 1979
5089 1968
5090 1962
5091 1958
5092 1949
5093 1943
5094 1939
5095 1940
5096 1950
5097 1963
5098 1974
5099 1980
5100 1990
5101 1995
5102 2005
5103 2008
5104 2006
5105 2005
5106 2002
5107 1996
5108 1984
5109 1976
5110 1967
5111 1958
5112 1947
5113 1944
5114 1945
5115 1945
5116 1950
5117 1957
5118 1967
5119 1975
5120 1983
5121 1989
5122 1999
5123 2002
5124 2004
5125 2005
5126 2000
5127 1993
5128 1983
5129 1977
5130 1967
5131 1963
5132 1949
5133 1943
5134 1940
5135 1940
5136 1947
5137 1955
5138 1963
5139 1970
5140 1980
5141 1987
5142 1997
5143 2002
5144 2004
5145 2006
5146 2004
5147 1998
5148 1987
5149 1978
5150 1967
5151 1956
5152 1942
5153 1937
5154 1937
5155 1936
5156 1940
5157 1945
5158 1955
5159 1968
5160 1981
5161 1988
5162 1998
5163 2003
5164 2000
5165 1998
5166 1997
5167 1993
5168 1988
5169 1978
5170 1964
5171 1957
5172 1947
5173 1943
5174 1941
5175 1935
5176 1938
5177 1943
5178 1953
5179 1964
5180 1975
5181 1981
5182 1991
5183 1996
5184 1998
5185 1999
5186 1995
5187 1989
5188 1983
5189 1972
5190 1962
5191 1956
5192 1947
5193 1943
5194 1941
5195 1935
5196 1937
5197 1943
5198 1951
5199 1962
5200 1972
5201 1979
5202 1993
5203 2000
5204 2001
5205 2003
5206 1998
5207 1992
5208 1981
5209 1973
5210 1962
5211 1955
5212 1945
5213 1941
5214 1940
5215 1935
5216 1936
5217 1946
5218 1957
5219 1967
5220 1973
5221 1978
5222 1988
5223 1996
5224 2000
5225 2000
5226 1996
5227 1988
5228 1981
5229 1970
5230 1960
5231 1955
5232 1942
5233 1936
5234 1935
5235 1934
5236 1936
5237 1945
5238 1954
5239 1963
5240 1971
5241 1977
5242 1987
5243 1993
5244 1997
5245 2005
5246 2006
5247 1998
5248 1988
5249 1978
5250 1967
5251 1952
5252 1936
5253 1931
5254 1931
5255 1929
5256 1934
5257 1939
5258 1947
5259 1961
5260 1973
5261 1980
5262 1987
5263 1992
5264 1992
5265 1993
5266 1980
5267 1970
5268 1964
5269 1957
5270 1951
5271 1949
5272 1945
5273 1940
5274 1937
5275 1932
5276 1934
5277 1939
5278 1947
5279 1960
5280 1973
5281 1985
5282 1993
5283 1998
5284 1996
5285 1997
5286 1993
5287 1992
5288 1989
5289 1978
5290 1963
5291 1952
5292 1942
5293 1934
5294 1934
5295 1934
5296 1939
5297 1946
5298 1951
5299 1960
5300 1971
5301 1980
5302 1987
5303 1994
5304 1995
5305 1998
5306 1996
5307 1992
5308 1984
5309 1974
5310 1966
5311 1957
5312 1947
5313 1937
5314 1933
5315 1930
5316 1933
5317 1939
5318 1948
5319 1960
5320 1969
5321 1977
5322 1980
5323 1987
5324 1988
5325 1992
5326 1992
5327 1988
5328 1978
5329 1968
5330 1960
5331 1954
5332 1946
5333 1940
5334 1937
5335 1935
5336 1933
5337 1939
5338 1950
5339 1965
5340 1980
5341 1989
5342 1997
5343 2009
5344 2015
5345 2024
5346 2027
5347 2018
5348 2009
5349 2001
5350 1995
5351 1988
5352 1981
5353 1975
5354 1976
5355 1977
5356 1976
5357 1980
5358 1987
5359 2000
5360 2010
5361 2017
5362 2027
5363 2035
5364 2037
5365 2042
5366 2046
5367 2043
5368 2038
5369 2031
5370 2024
5371 2021
5372 2018
5373 2009
5374 2004
5375 2001
5376 2001
5377 2007
5378 2013
5379 2021
5380 2032
5381 2044
5382 2046
5383 2051
5384 2050
5385 2049
5386 2048
5387 2038
5388 2028
5389 2019
5390 2010
5391 1998
5392 1990
5393 1979
5394 1972
5395 1969
5396 1966
5397 1967
5398 1970
5399 1977
5400 1983
5401 1990
5402 1992
5403 2001
5404 2006
5405 2008
5406 2008
5407 1999
5408 1989
5409 1975
5410 1963
5411 1956
5412 1948
5413 1935
5414 1930
5415 1928
5416 1927
5417 1929
5418 1935
5419 1949
5420 1958
5421 1966
5422 1973
5423 1983
5424 1988
5425 1992
5426 1994
5427 1991
5428 1983
5429 1969
5430 1958
5431 1946
5432 1942
5433 1929
5434 1924
5435 1927
5436 1928
5437 1930
5438 1937
5439 1946
5440 1955
5441 1965
5442 1972
5443 1977
5444 1979
5445 1981
5446 1986
5447 1982
5448 1976
5449 1968
5450 1960
5451 1949
5452 1940
5453 1926
5454 1921
5455 1920
5456 1918
5457 1926
5458 1937
5459 1950
5460 1961
5461 1973
5462 1985
5463 2002
5464 2013
5465 2024
5466 2038
5467 2044
5468 2055
5469 2061
5470 2067
5471 2075
5472 2091
5473 2102
5474 2115
5475 2139
5476 2160
5477 2190
5478 2214
5479 2237
5480 2264
5481 2289
5482 2308
5483 2327
5484 2328
5485 2310
5486 2284
5487 2246
5488 2212
5489 2172
5490 2136
5491 2098
5492 2065
5493 2030
5494 2000
5495 1975
5496 1949
5497 1930
5498 1910
5499 1892
5500 1880
5501 1878
5502 1878
5503 1887
5504 1891
5505 1888
5506 1891
5507 1894
5508 1896
5509 1898
5510 1899
5511 1898
5512 1900
5513 1896
5514 1895
5515 1902
5516 1905
5517 1914
5518 1920
5519 1930
5520 1945
5521 1960
5522 1968
5523 1979
5524 1987
5525 1992
5526 1994
5527 1989
5528 1983
5529 1974
5530 1967
5531 1956
5532 1947
5533 1936
5534 1928
5535 1926
5536 1927
5537 1932
5538 1936
5539 1940
5540 1950
5541 1962
5542 1967
5543 1978
5544 1988
5545 1993
5546 1998
5547 1991
5548 1983
5549 1977
5550 1968
5551 1958
5552 1950
5553 1937
5554 1930
5555 1926
5556 1922
5557 1928
5558 1937
5559 1948
5560 1960
5561 1973
5562 1979
5563 1987
5564 1992
5565 1993
5566 1994
5567 1991
5568 1984
5569 1976
5570 1965
5571 1954
5572 1946
5573 1941
5574 1934
5575 1934
5576 1935
5577 1939
5578 1944
5579 1949
5580 1963
5581 1977
5582 1985
5583 1993
5584 1997
5585 1999
5586 2001
5587 1998
5588 1993
5589 1986
5590 1973
5591 1962
5592 1953
5593 1944
5594 1939
5595 1940
5596 1936
5597 1936
5598 1943
5599 1949
5600 1957
5601 1965
5602 1974
5603 1985
5604 1996
5605 1998
5606 2002
5607 2000
5608 1995
5609 1987
5610 1976
5611 1967
5612 1959
5613 1950
5614 1940
5615 1939
5616 1937
5617 1943
5618 1950
5619 1958
5620 1970
5621 1982
5622 1991
5623 1997
5624 2005
5625 2004
5626 2004
5627 2002
5628 2000
5629 1992
5630 1980
5631 1971
5632 1964
5633 1956
5634 1949
5635 1949
5636 1950
5637 1953
5638 1958
5639 1965
5640 1972
5641 1984
5642 1990
5643 1997
5644 2006
5645 2009
5646 2013
5647 2017
5648 2018
5649 2007
5650 1994
5651 1984
5652 1978
5653 1975
5654 1967
5655 1958
5656 1952
5657 1953
5658 1959
5659 1966
5660 1980
5661 1995
5662 2003
5663 2005
5664 2012
5665 2019
5666 2023
5667 2027
5668 2024
5669 2015
5670 1999
5671 1987
5672 1979
5673 1974
5674 1966
5675 1963
5676 1960
5677 1960
5678 1967
5679 1978
5680 1990
5681 1996
5682 2007
5683 2016
5684 2030
5685 2035
5686 2039
5687 2042
5688 2037
5689 2026
5690 2013
5691 2002
5692 1994
5693 1992
5694 1981
5695 1976
5696 1975
5697 1976
5698 1980
5699 1988
5700 2001
5701 2011
5702 2020
5703 2026
5704 2036
5705 2042
5706 2045
5707 2046
5708 2040
5709 2034
5710 2022
5711 2011
5712 2005
5713 1997
5714 1987
5715 1986
5716 1987
5717 1987
5718 1990
5719 1996
5720 2007
5721 2016
5722 2028
5723 2035
5724 2046
5725 2050
5726 2052
5727 2050
5728 2042
5729 2035
5730 2027
5731 2017
5732 2006
5733 2001
5734 1990
5735 1984
5736 1981
5737 1978
5738 1985
5739 1992
5740 2003
5741 2013
5742 2021
5743 2026
5744 2040
5745 2045
5746 2046
5747 2042
5748 2037
5749 2031
5750 2022
5751 2010
5752 1998
5753 1991
5754 1979
5755 1975
5756 1974
5757 1968
5758 1970
5759 1980
5760 1991
5761 2003
5762 2012
5763 2018
5764 2026
5765 2028
5766 2027
5767 2024
5768 2019
5769 2007
5770 1996
5771 1984
5772 1974
5773 1972
5774 1960
5775 1955
5776 1955
5777 1959
5778 1965
5779 1969
5780 1976
5781 1982
5782 1986
5783 1987
5784 1995
5785 2001
5786 2001
5787 2004
5788 2002
5789 1998
5790 1989
5791 1980
5792 1966
5793 1956
5794 1943
5795 1939
5796 1940
5797 1941
5798 1943
5799 1945
5800 1952
5801 1963
5802 1975
5803 1982
5804 1988
5805 1993
5806 1992
5807 1994
5808 1988
5809 1982
5810 1976
5811 1966
5812 1954
5813 1949
5814 1941
5815 1934
5816 1934
5817 1932
5818 1941
5819 1949
5820 1956
5821 1962
5822 1972
5823 1980
5824 1990
5825 1995
5826 1994
5827 1998
5828 1994
5829 1991
5830 1981
5831 1970
5832 1958
5833 1951
5834 1942
5835 1939
5836 1936
5837 1928
5838 1932
5839 1942
5840 1953
5841 1963
5842 1970
5843 1977
5844 1985
5845 1992
5846 1995
5847 2000
5848 1997
5849 1990
5850 1982
5851 1973
5852 1965
5853 1960
5854 1947
5855 1939
5856 1937
5857 1932
5858 1936
5859 1942
5860 1951
5861 1962
5862 1973
5863 1982
5864 1994
5865 2000
5866 2004
5867 2006
5868 2000
5869 1991
5870 1982
5871 1973
5872 1963
5873 1956
5874 1946
5875 1938
5876 1935
5877 1936
5878 1941
5879 1947
5880 1955
5881 1965
5882 1977
5883 1985
5884 1994
5885 2002
5886 1999
5887 1998
5888 2000
5889 1998
5890 1990
5891 1980
5892 1969
5893 1960
5894 1952
5895 1942
5896 1940
5897 1939
5898 1943
5899 1949
5900 1957
5901 1965
5902 1974
5903 1984
5904 1995
5905 2006
5906 2006
5907 2006
5908 2002
5909 1994
5910 1987
5911 1977
5912 1969
5913 1962
5914 1952
5915 1943
5916 1939
5917 1935
5918 1937
5919 1945
5920 1956
5921 1968
5922 1979
5923 1988
5924 1995
5925 2001
5926 2002
5927 2007
5928 2006
5929 2000
5930 1991
5931 1980
5932 1969
5933 1962
5934 1954
5935 1943
5936 1942
5937 1937
5938 1939
5939 1944
5940 1951
5941 1960
5942 1965
5943 1971
5944 1978
5945 1989
5946 1996
5947 2001
5948 1998
5949 1995
5950 1986
5951 1973
5952 1962
5953 1955
5954 1951
5955 1943
5956 1943
5957 1939
5958 1935
5959 1937
5960 1944
5961 1955
5962 1965
5963 1972
5964 1980
5965 1991
5966 1996
5967 1999
5968 1998
5969 1990
5970 1982
5971 1975
5972 1970
5973 1964
5974 1959
5975 1949
5976 1944
5977 1939
5978 1935
5979 1939
5980 1949
5981 1959
5982 1967
5983 1976
5984 1983
5985 1989
5986 1993
5987 1992
5988 1991
5989 1986
5990 1979
5991 1970
5992 1963
5993 1957
5994 1950
5995 1936
5996 1931
5997 1933
5998 1933
5999 1940
6000 1947
6001 1955
6002 1961
6003 1970
6004 1978
6005 1991
6006 1997
6007 1996
6008 1993
6009 1991
6010 1989
6011 1977
6012 1968
6013 1962
6014 1956
6015 1945
6016 1939
6017 1935
6018 1932
6019 1937
6020 1943
6021 1951
6022 1959
6023 1966
6024 1972
6025 1984
6026 1987
6027 1987
6028 1988
6029 1983
6030 1975
6031 1964
6032 1957
6033 1948
6034 1943
6035 1935
6036 1933
6037 1933
6038 1935
6039 1942
6040 1951
6041 1958
6042 1966
6043 1972
6044 1976
6045 1988
6046 1991
6047 1992
6048 1994
6049 1986
6050 1980
6051 1970
6052 1961
6053 1952
6054 1949
6055 1941
6056 1938
6057 1937
6058 1932
6059 1936
6060 1946
6061 1956
6062 1965
6063 1973
6064 1978
6065 1985
6066 1987
6067 1986
6068 1989
6069 1984
6070 1977
6071 1967
6072 1961
6073 1954
6074 1945
6075 1932
6076 1926
6077 1926
6078 1925
6079 1931
6080 1939
6081 1953
6082 1963
6083 1971
6084 1978
6085 1989
6086 1993
6087 1993
6088 1995
6089 1990
6090 1981
6091 1971
6092 1964
6093 1956
6094 1951
6095 1940
6096 1932
6097 1930
6098 1928
6099 1933
6100 1940
6101 1949
6102 1959
6103 1971
6104 1977
6105 1985
6106 1988
6107 1989
6108 1991
6109 1988
6110 1982
6111 1970
6112 1958
6113 1949
6114 1941
6115 1934
6116 1931
6117 1932
6118 1931
6119 1934
6120 1942
6121 1950
6122 1958
6123 1967
6124 1973
6125 1983
6126 1990
6127 1990
6128 1991
6129 1986
6130 1980
6131 1972
6132 1962
6133 1951
6134 1943
6135 1933
6136 1928
6137 1927
6138 1926
6139 1931
6140 1942
6141 1951
6142 1956
6143 1964
6144 1972
6145 1981
6146 1985
6147 1986
6148 1989
6149 1989
6150 1987
6151 1978
6152 1967
6153 1960
6154 1955
6155 1945
6156 1939
6157 1935
6158 1929
6159 1932
6160 1940
6161 1949
6162 1961
6163 1973
6164 1978
6165 1985
6166 1987
6167 1983
6168 1988
6169 1986
6170 1978
6171 1968
6172 1958
6173 1948
6174 1940
6175 1933
6176 1929
6177 1929
6178 1929
6179 1937
6180 1939
6181 1946
6182 1959
6183 1971
6184 1980
6185 1987
6186 1990
6187 1991
6188 1995
6189 1991
6190 1984
6191 1977
6192 1968
6193 1959
6194 1951
6195 1940
6196 1933
6197 1933
6198 1933
6199 1937
6200 1940
6201 1945
6202 1954
6203 1968
6204 1976
6205 1983
6206 1988
6207 1993
6208 1998
6209 1994
6210 1987
6211 1981
6212 1974
6213 1962
6214 1957
6215 1954
6216 1951
6217 1950
6218 1942
6219 1942
6220 1951
6221 1964
6222 1979
6223 1993
6224 2002
6225 2012
6226 2020
6227 2025
6228 2028
6229 2025
6230 2021
6231 2017
6232 2010
6233 2003
6234 1997
6235 1985
6236 1975
6237 1973
6238 1971
6239 1975
6240 1984
6241 1995
6242 2003
6243 2015
6244 2028
6245 2038
6246 2047
6247 2052
6248 2056
6249 2056
6250 2050
6251 2043
6252 2032
6253 2021
6254 2012
6255 2005
6256 1999
6257 1997
6258 1991
6259 1986
6260 1990
6261 1995
6262 2002
6263 2009
6264 2017
6265 2024
6266 2028
6267 2026
6268 2023
6269 2018
6270 2012
6271 2006
6272 1996
6273 1986
6274 1975
6275 1971
6276 1961
6277 1952
6278 1946
6279 1943
6280 1947
6281 1948
6282 1955
6283 1962
6284 1970
6285 1979
6286 1983
6287 1987
6288 1990
6289 1988
6290 1978
6291 1970
6292 1960
6293 1952
6294 1944
6295 1940
6296 1931
6297 1928
6298 1925
6299 1923
6300 1928
6301 1937
6302 1951
6303 1961
6304 1969
6305 1977
6306 1989
6307 1988
6308 1989
6309 1988
6310 1978
6311 1969
6312 1965
6313 1958
6314 1946
6315 1938
6316 1928
6317 1926
6318 1925
6319 1921
6320 1922
6321 1928
6322 1936
6323 1949
6324 1961
6325 1968
6326 1976
6327 1980
6328 1981
6329 1981
6330 1978
6331 1972
6332 1964
6333 1957
6334 1949
6335 1942
6336 1937
6337 1941
6338 1944
6339 1953
6340 1966
6341 1979
6342 2001
6343 2029
6344 2055
6345 2076
6346 2103
6347 2125
6348 2146
6349 2167
6350 2182
6351 2198
6352 2215
6353 2228
6354 2236
6355 2246
6356 2251
6357 2259
6358 2261
6359 2247
6360 2232
6361 2212
6362 2195
6363 2180
6364 2160
6365 2136
6366 2119
6367 2102
6368 2081
6369 2060
6370 2029
6371 1998
6372 1963
6373 1924
6374 1889
6375 1868
6376 1845
6377 1834
6378 1831
6379 1829
6380 1832
6381 1842
6382 1862
6383 1878
6384 1894
6385 1910
6386 1928
6387 1939
6388 1949
6389 1961
6390 1962
6391 1955
6392 1944
6393 1939
6394 1932
6395 1925
6396 1915
6397 1915
6398 1916
6399 1917
6400 1923
6401 1932
6402 1943
6403 1954
6404 1966
6405 1972
6406 1981
6407 1986
6408 1987
6409 1990
6410 1988
6411 1978
6412 1966
6413 1958
6414 1949
6415 1942
6416 1930
6417 1929
6418 1928
6419 1924
6420 1933
6421 1943
6422 1947
6423 1951
6424 1963
6425 1970
6426 1983
6427 1991
6428 1994
6429 1996
6430 1990
6431 1980
6432 1970
6433 1959
6434 1952
6435 1945
6436 1934
6437 1928
6438 1928
6439 1927
6440 1928
6441 1933
6442 1945
6443 1957
6444 1967
6445 1975
6446 1989
6447 1998
6448 2002
6449 2001
6450 1988
6451 1975
6452 1963
6453 1955
6454 1955
6455 1950
6456 1942
6457 1933
6458 1930
6459 1926
6460 1930
6461 1938
6462 1947
6463 1955
6464 1964
6465 1974
6466 1985
6467 1993
6468 1995
6469 1998
6470 1994
6471 1987
6472 1982
6473 1973
6474 1963
6475 1958
6476 1949
6477 1940
6478 1939
6479 1937
6480 1941
6481 1945
6482 1951
6483 1964
6484 1978
6485 1985
6486 1989
6487 1997
6488 1999
6489 2003
6490 2001
6491 1996
6492 1987
6493 1976
6494 1966
6495 1959
6496 1951
6497 1942
6498 1941
6499 1938
6500 1939
6501 1945
6502 1956
6503 1967
6504 1975
6505 1984
6506 1994
6507 1999
6508 2002
6509 2003
6510 2001
6511 1997
6512 1988
6513 1979
6514 1969
6515 1965
6516 1958
6517 1950
6518 1950
6519 1949
6520 1954
6521 1962
6522 1972
6523 1981
6524 1991
6525 2000
6526 2010
6527 2022
6528 2027
6529 2027
6530 2023
6531 2014
6532 2001
6533 1988
6534 1977
6535 1971
6536 1963
6537 1956
6538 1955
6539 1953
6540 1953
6541 1959
6542 1967
6543 1980
6544 1993
6545 2003
6546 2010
6547 2019
6548 2024
6549 2028
6550 2026
6551 2020
6552 2012
6553 2001
6554 1993
6555 1986
6556 1975
6557 1965
6558 1963
6559 1962
6560 1965
6561 1974
6562 1984
6563 1995
6564 2006
6565 2015
6566 2022
6567 2031
6568 2034
6569 2037
6570 2037
6571 2025
6572 2016
6573 2008
6574 2001
6575 1992
6576 1986
6577 1979
6578 1978
6579 1976
6580 1978
6581 1987
6582 1995
6583 2004
6584 2011
6585 2018
6586 2029
6587 2043
6588 2045
6589 2043
6590 2038
6591 2034
6592 2030
6593 2021
6594 2011
6595 2006
6596 2001
6597 1987
6598 1982
6599 1981
6600 1982
6601 1987
6602 1995
6603 2006
6604 2013
6605 2019
6606 2022
6607 2033
6608 2037
6609 2041
6610 2042
6611 2037
6612 2029
6613 2017
6614 2008
6615 2001
6616 1995
6617 1985
6618 1985
6619 1983
6620 1984
6621 1992
6622 2001
6623 2003
6624 2008
6625 2016
6626 2028
6627 2036
6628 2038
6629 2039
6630 2038
6631 2032
6632 2023
6633 2012
6634 2001
6635 1990
6636 1982
6637 1971
6638 1968
6639 1968
6640 1966
6641 1966
6642 1974
6643 1987
6644 1996
6645 2002
6646 2003
6647 2007
6648 2010
6649 2012
6650 2011
6651 2006
6652 2001
6653 1992
6654 1981
6655 1970
6656 1965
6657 1954
6658 1950
6659 1949
6660 1946
6661 1948
6662 1954
6663 1961
6664 1969
6665 1978
6666 1982
6667 1992
6668 1995
6669 1995
6670 1997
6671 1993
6672 1989
6673 1981
6674 1975
6675 1966
6676 1960
6677 1948
6678 1940
6679 1935
6680 1934
6681 1938
6682 1945
6683 1953
6684 1961
6685 1973
6686 1979
6687 1991
6688 1993
6689 1994
6690 1999
6691 1997
6692 1990
6693 1978
6694 1966
6695 1954
6696 1946
6697 1937
6698 1932
6699 1931
6700 1932
6701 1938
6702 1943
6703 1950
6704 1960
6705 1972
6706 1979
6707 1988
6708 1993
6709 1993
6710 1996
6711 1994
6712 1990
6713 1980
6714 1967
6715 1957
6716 1950
6717 1937
6718 1927
6719 1927
6720 1927
6721 1936
6722 1947
6723 1957
6724 1965
6725 1973
6726 1981
6727 1993
6728 2000
6729 1999
6730 1997
6731 1992
6732 1987
6733 1976
6734 1967
6735 1958
6736 1953
6737 1945
6738 1939
6739 1937
6740 1931
6741 1935
6742 1942
6743 1951
6744 1964
6745 1973
6746 1977
6747 1990
6748 1995
6749 1996
6750 1997
6751 1994
6752 1987
6753 1978
6754 1970
6755 1961
6756 1954
6757 1943
6758 1940
6759 1940
6760 1937
6761 1940
6762 1948
6763 1959
6764 1968
6765 1977
6766 1983
6767 1995
6768 1999
6769 1997
6770 1999
6771 1993
6772 1985
6773 1976
6774 1967
6775 1959
6776 1954
6777 1945
6778 1941
6779 1944
6780 1939
6781 1940
6782 1947
6783 1958
6784 1969
6785 1979
6786 1984
6787 1991
6788 1996
6789 1998
6790 2000
6791 1996
6792 1990
6793 1984
6794 1977
6795 1969
6796 1959
6797 1948
6798 1941
6799 1939
6800 1935
6801 1936
6802 1942
6803 1951
6804 1963
6805 1978
6806 1984
6807 1990
6808 1995
6809 1996
6810 1999
6811 1993
6812 1986
6813 1977
6814 1966
6815 1956
6816 1950
6817 1943
6818 1938
6819 1939
6820 1938
6821 1935
6822 1940
6823 1948
6824 1960
6825 1969
6826 1978
6827 1985
6828 1993
6829 1997
6830 2001
6831 1997
6832 1990
6833 1983
6834 1971
6835 1957
6836 1949
6837 1942
6838 1933
6839 1929
6840 1928
6841 1929
6842 1937
6843 1944
6844 1956
6845 1969
6846 1982
6847 1994
6848 2001
6849 2001
6850 2004
6851 2000
6852 1989
6853 1980
6854 1969
6855 1957
6856 1948
6857 1941
6858 1934
6859 1933
6860 1928
6861 1931
6862 1940
6863 1951
6864 1962
6865 1972
6866 1977
6867 1983
6868 1990
6869 1992
6870 1995
6871 1998
6872 1994
6873 1984
6874 1971
6875 1960
6876 1953
6877 1941
6878 1928
6879 1926
6880 1928
6881 1929
6882 1933
6883 1941
6884 1952
6885 1963
6886 1969
6887 1974
6888 1983
6889 1984
6890 1987
6891 1987
6892 1980
6893 1973
6894 1962
6895 1953
6896 1949
6897 1942
6898 1932
6899 1927
6900 1925
6901 1929
6902 1937
6903 1946
6904 1958
6905 1968
6906 1977
6907 1980
6908 1987
6909 1986
6910 1986
6911 1984
6912 1980
6913 1975
6914 1966
6915 1956
6916 1944
6917 1936
6918 1928
6919 1927
6920 1926
6921 1925
6922 1928
6923 1937
6924 1949
6925 1962
6926 1972
6927 1976
6928 1984
6929 1987
6930 1990
6931 1990
6932 1983
6933 1974
6934 1958
6935 1950
6936 1943
6937 1938
6938 1929
6939 1929
6940 1926
6941 1924
6942 1928
6943 1934
6944 1944
6945 1955
6946 1961
6947 1966
6948 1978
6949 1984
6950 1987
6951 1989
6952 1983
6953 1975
6954 1964
6955 1954
6956 1946
6957 1942
6958 1932
6959 1927
6960 1926
6961 1927
6962 1933
6963 1941
6964 1950
6965 1956
6966 1964
6967 1973
6968 1983
6969 1989
6970 1989
6971 1986
6972 1982
6973 1976
6974 1968
6975 1957
6976 1949
6977 1944
6978 1935
6979 1931
6980 1931
6981 1929
6982 1934
6983 1943
6984 1949
6985 1952
6986 1960
6987 1971
6988 1980
6989 1981
6990 1980
6991 1981
6992 1980
6993 1975
6994 1964
6995 1955
6996 1946
6997 1940
6998 1931
6999 1927
7000 1930
7001 1930
7002 1932
7003 1937
7004 1944
7005 1954
7006 1962
7007 1967
7008 1976
7009 1982
7010 1982
7011 1985
7012 1981
7013 1976
7014 1969
7015 1966
7016 1958
7017 1950
7018 1938
7019 1931
7020 1929
7021 1924
7022 1927
7023 1938
7024 1947
7025 1953
7026 1966
7027 1972
7028 1979
7029 1983
7030 1984
7031 1986
7032 1981
7033 1975
7034 1965
7035 1958
7036 1949
7037 1940
7038 1931
7039 1928
7040 1925
7041 1922
7042 1928
7043 1932
7044 1940
7045 1951
7046 1964
7047 1973
7048 1984
7049 1987
7050 1987
7051 1990
7052 1990
7053 1980
7054 1967
7055 1961
7056 1950
7057 1946
7058 1936
7059 1929
7060 1926
7061 1920
7062 1923
7063 1930
7064 1938
7065 1947
7066 1957
7067 1965
7068 1977
7069 1982
7070 1986
7071 1990
7072 1989
7073 1984
7074 1974
7075 1968
7076 1959
7077 1950
7078 1938
7079 1930
7080 1927
7081 1924
7082 1926
7083 1930
7084 1938
7085 1948
7086 1958
7087 1964
7088 1975
7089 1985
7090 1988
7091 1993
7092 1995
7093 1993
7094 1986
7095 1975
7096 1964
7097 1957
7098 1950
7099 1948
7100 1950
7101 1947
7102 1949
7103 1956
7104 1967
7105 1980
7106 1992
7107 1999
7108 2007
7109 2017
7110 2023
7111 2030
7112 2027
7113 2020
7114 2006
7115 1996
7116 1989
7117 1988
7118 1980
7119 1968
7120 1968
7121 1968
7122 1974
7123 1983
7124 1993
7125 2005
7126 2022
7127 2030
7128 2040
7129 2049
7130 2051
7131 2055
7132 2054
7133 2047
7134 2036
7135 2024
7136 2016
7137 2010
7138 1999
7139 1990
7140 1986
7141 1979
7142 1975
7143 1977
7144 1984
7145 1993
7146 2004
7147 2013
7148 2023
7149 2030
7150 2026
7151 2022
7152 2015
7153 2006
7154 1999
7155 1988
7156 1977
7157 1968
7158 1958
7159 1946
7160 1942
7161 1939
7162 1939
7163 1940
7164 1945
7165 1954
7166 1962
7167 1968
7168 1978
7169 1987
7170 1987
7171 1988
7172 1988
7173 1984
7174 1980
7175 1966
7176 1947
7177 1935
7178 1930
7179 1925
7180 1926
7181 1926
7182 1925
7183 1931
7184 1938
7185 1948
7186 1957
7187 1964
7188 1969
7189 1977
7190 1983
7191 1988
7192 1988
7193 1985
7194 1983
7195 1968
7196 1951
7197 1938
7198 1930
7199 1921
7200 1921
7201 1919
7202 1917
7203 1923
7204 1927
7205 1937
7206 1948
7207 1958
7208 1965
7209 1973
7210 1976
7211 1978
7212 1980
7213 1976
7214 1973
7215 1967
7216 1963
7217 1960
7218 1955
7219 1950
7220 1953
7221 1956
7222 1960
7223 1972
7224 1993
7225 2018
7226 2048
7227 2073
7228 2096
7229 2125
7230 2145
7231 2166
7232 2186
7233 2199
7234 2212
7235 2221
7236 2231
7237 2237
7238 2245
7239 2243
7240 2232
7241 2213
7242 2184
7243 2159
7244 2142
7245 2132
7246 2120
7247 2108
7248 2092
7249 2082
7250 2064
7251 2046
7252 2028
7253 2006
7254 1978
7255 1943
7256 1915
7257 1889
7258 1871
7259 1853
7260 1843
7261 1837
7262 1834
7263 1841
7264 1851
7265 1865
7266 1882
7267 1898
7268 1907
7269 1921
7270 1932
7271 1940
7272 1945
7273 1945
7274 1944
7275 1939
7276 1932
7277 1925
7278 1922
7279 1915
7280 1913
7281 1913
7282 1914
7283 1921
7284 1932
7285 1945
7286 1957
7287 1969
7288 1973
7289 1983
7290 1985
7291 1983
7292 1982
7293 1976
7294 1972
7295 1962
7296 1954
7297 1947
7298 1941
7299 1932
7300 1929
7301 1929
7302 1927
7303 1931
7304 1935
7305 1940
7306 1951
7307 1962
7308 1969
7309 1981
7310 1986
7311 1983
7312 1986
7313 1983
7314 1975
7315 1963
7316 1958
7317 1951
7318 1948
7319 1940
7320 1936
7321 1930
7322 1925
7323 1929
7324 1936
7325 1945
7326 1954
7327 1966
7328 1969
7329 1975
7330 1980
7331 1987
7332 1992
7333 1989
7334 1984
7335 1977
7336 1970
7337 1961
7338 1953
7339 1937
7340 1930
7341 1927
7342 1922
7343 1926
7344 1937
7345 1948
7346 1956
7347 1964
7348 1972
7349 1985
7350 1992
7351 1994
7352 1996
7353 1988
7354 1980
7355 1973
7356 1968
7357 1957
7358 1949
7359 1940
7360 1934
7361 1931
7362 1930
7363 1935
7364 1943
7365 1949
7366 1960
7367 1971
7368 1980
7369 1995
7370 2003
7371 2004
7372 2005
7373 1998
7374 1988
7375 1979
7376 1970
7377 1962
7378 1960
7379 1951
7380 1942
7381 1941
7382 1940
7383 1944
7384 1948
7385 1955
7386 1963
7387 1973
7388 1978
7389 1988
7390 1994
7391 1997
7392 2001
7393 2000
7394 1994
7395 1986
7396 1978
7397 1970
7398 1965
7399 1955
7400 1949
7401 1949
7402 1949
7403 1955
7404 1963
7405 1972
7406 1982
7407 1989
7408 1994
7409 2001
7410 2006
7411 2009
7412 2012
7413 2009
7414 2002
7415 1993
7416 1983
7417 1973
7418 1969
7419 1962
7420 1958
7421 1953
7422 1949
7423 1954
7424 1964
7425 1978
7426 1989
7427 1997
7428 2003
7429 2009
7430 2014
7431 2015
7432 2017
7433 2013
7434 2006
7435 2001
7436 1992
7437 1982
7438 1977
7439 1970
7440 1962
7441 1960
7442 1957
7443 1962
7444 1970
7445 1979
7446 1988
7447 2000
7448 2007
7449 2019
7450 2029
7451 2030
7452 2033
7453 2034
7454 2028
7455 2021
7456 2013
7457 2005
7458 1998
7459 1989
7460 1977
7461 1972
7462 1966
7463 1970
7464 1981
7465 1989
7466 1996
7467 2008
7468 2019
7469 2029
7470 2036
7471 2039
7472 2042
7473 2041
7474 2035
7475 2028
7476 2019
7477 2011
7478 2004
7479 1997
7480 1988
7481 1987
7482 1984
7483 1984
7484 1987
7485 1992
7486 2001
7487 2010
7488 2020
7489 2028
7490 2036
7491 2039
7492 2043
7493 2041
7494 2039
7495 2032
7496 2021
7497 2010
7498 2001
7499 1997
7500 1990
7501 1988
7502 1983
7503 1984
7504 1989
7505 1995
7506 2001
7507 2011
7508 2019
7509 2028
7510 2036
7511 2036
7512 2030
7513 2026
7514 2022
7515 2018
7516 2008
7517 1994
7518 1985
7519 1977
7520 1966
7521 1963
7522 1962
7523 1962
7524 1967
7525 1973
7526 1982
7527 1991
7528 1996
7529 2002
7530 2012
7531 2017
7532 2018
7533 2016
7534 2007
7535 1998
7536 1985
7537 1974
7538 1964
7539 1958
7540 1950
7541 1944
7542 1943
7543 1941
7544 1947
7545 1960
7546 1975
7547 1980
7548 1982
7549 1986
7550 1997
7551 2003
7552 2005
7553 2004
7554 1998
7555 1993
7556 1984
7557 1971
7558 1959
7559 1949
7560 1937
7561 1933
7562 1933
7563 1934
7564 1941
7565 1944
7566 1953
7567 1962
7568 1972
7569 1975
7570 1984
7571 1988
7572 1987
7573 1990
7574 1990
7575 1983
7576 1967
7577 1957
7578 1951
7579 1945
7580 1932
7581 1932
7582 1932
7583 1930
7584 1934
7585 1944
7586 1953
7587 1958
7588 1966
7589 1974
7590 1984
7591 1983
7592 1985
7593 1990
7594 1986
7595 1980
7596 1970
7597 1961
7598 1954
7599 1950
7600 1940
7601 1933
7602 1930
7603 1927
7604 1932
7605 1942
7606 1953
7607 1964
7608 1976
7609 1982
7610 1993
7611 1996
7612 1993
7613 1991
7614 1987
7615 1983
7616 1972
7617 1963
7618 1952
7619 1944
7620 1933
7621 1931
7622 1933
7623 1934
7624 1941
7625 1949
7626 1958
7627 1965
7628 1973
7629 1979
7630 1990
7631 1997
7632 1995
7633 1996
7634 1993
7635 1983
7636 1970
7637 1959
7638 1947
7639 1942
7640 1937
7641 1938
7642 1939
7643 1936
7644 1937
7645 1947
7646 1958
7647 1966
7648 1975
7649 1981
7650 1991
7651 1994
7652 1993
7653 1995
7654 1993
7655 1987
7656 1975
7657 1965
7658 1959
7659 1953
7660 1940
7661 1934
7662 1934
7663 1934
7664 1937
7665 1944
7666 1955
7667 1966
7668 1974
7669 1978
7670 1988
7671 1996
7672 1999
7673 2002
7674 1995
7675 1986
7676 1977
7677 1964
7678 1957
7679 1953
7680 1946
7681 1941
7682 1943
7683 1940
7684 1943
7685 1946
7686 1954
7687 1962
7688 1964
7689 1972
7690 1982
7691 1988
7692 1987
7693 1988
7694 1984
7695 1981
7696 1975
7697 1966
7698 1954
7699 1951
7700 1945
7701 1938
7702 1934
7703 1926
7704 1931
7705 1937
7706 1946
7707 1957
7708 1969
7709 1977
7710 1989
7711 1996
7712 1997
7713 2001
7714 1996
7715 1985
7716 1972
7717 1960
7718 1949
7719 1944
7720 1937
7721 1932
7722 1930
7723 1927
7724 1933
7725 1943
7726 1947
7727 1954
7728 1962
7729 1972
7730 1980
7731 1983
7732 1985
7733 1989
7734 1988
7735 1981
7736 1973
7737 1964
7738 1954
7739 1948
7740 1938
7741 1929
7742 1926
7743 1923
7744 1926
7745 1931
7746 1940
7747 1950
7748 1962
7749 1974
7750 1982
7751 1986
7752 1987
7753 1991
7754 1990
7755 1984
7756 1975
7757 1965
7758 1957
7759 1950
7760 1940
7761 1934
7762 1932
7763 1927
7764 1925
7765 1926
7766 1934
7767 1946
7768 1953
7769 1959
7770 1967
7771 1976
7772 1981
7773 1988
7774 1985
7775 1978
7776 1972
7777 1963
7778 1953
7779 1943
7780 1932
7781 1923
7782 1921
7783 1922
7784 1923
7785 1928
7786 1938
7787 1953
7788 1965
7789 1969
7790 1974
7791 1983
7792 1985
7793 1988
7794 1987
7795 1980
7796 1973
7797 1963
7798 1952
7799 1942
7800 1937
7801 1925
7802 1921
7803 1920
7804 1923
7805 1929
7806 1937
7807 1948
7808 1956
7809 1963
7810 1970
7811 1979
7812 1984
7813 1988
7814 1985
7815 1980
7816 1970
7817 1957
7818 1947
7819 1939
7820 1933
7821 1922
7822 1920
7823 1920
7824 1923
7825 1928
7826 1935
7827 1943
7828 1954
7829 1963
7830 1970
7831 1979
7832 1982
7833 1980
7834 1979
7835 1973
7836 1964
7837 1953
7838 1947
7839 1944
7840 1940
7841 1929
7842 1926
7843 1923
7844 1921
7845 1924
7846 1932
7847 1943
7848 1953
7849 1961
7850 1969
7851 1974
7852 1973
7853 1975
7854 1976
7855 1971
7856 1966
7857 1956
7858 1945
7859 1940
7860 1939
7861 1934
7862 1933
7863 1931
7864 1925
7865 1930
7866 1938
7867 1945
7868 1951
7869 1957
7870 1963
7871 1973
7872 1977
7873 1981
7874 1981
7875 1971
7876 1964
7877 1954
7878 1944
7879 1934
7880 1929
7881 1921
7882 1917
7883 1915
7884 1915
7885 1922
7886 1932
7887 1944
7888 1955
7889 1961
7890 1964
7891 1973
7892 1979
7893 1982
7894 1982
7895 1976
7896 1968
7897 1961
7898 1952
7899 1941
7900 1931
7901 1920
7902 1918
7903 1918
7904 1919
7905 1924
7906 1929
7907 1937
7908 1944
7909 1956
7910 1964
7911 1976
7912 1978
7913 1977
7914 1981
7915 1983
7916 1976
7917 1962
7918 1953
7919 1943
7920 1936
7921 1926
7922 1923
7923 1923
7924 1920
7925 1924
7926 1931
7927 1938
7928 1949
7929 1959
7930 1962
7931 1974
7932 1981
7933 1983
7934 1983
7935 1976
7936 1966
7937 1956
7938 1947
7939 1937
7940 1933
7941 1926
7942 1923
7943 1920
7944 1916
7945 1920
7946 1928
7947 1937
7948 1946
7949 1956
7950 1963
7951 1974
7952 1982
7953 1982
7954 1983
7955 1975
7956 1968
7957 1961
7958 1956
7959 1949
7960 1943
7961 1934
7962 1931
7963 1935
7964 1934
7965 1936
7966 1945
7967 1957
7968 1967
7969 1980
7970 1988
7971 1995
7972 2000
7973 2007
7974 2011
7975 2010
7976 2001
7977 1994
7978 1986
7979 1976
7980 1968
7981 1960
7982 1957
7983 1958
7984 1955
7985 1961
7986 1970
7987 1986
7988 2000
7989 2010
7990 2016
7991 2027
7992 2033
7993 2032
7994 2037
7995 2033
7996 2026
7997 2022
7998 2015
7999 2004
8000 1996
8001 1987
8002 1982
8003 1981
8004 1978
8005 1980
8006 1981
8007 1987
8008 1995
8009 2001
8010 2003
8011 2006
8012 2010
8013 2012
8014 2014
8015 2006
8016 1997
8017 1988
8018 1978
8019 1966
8020 1959
8021 1947
8022 1940
8023 1937
8024 1935
8025 1934
8026 1936
8027 1944
8028 1955
8029 1965
8030 1968
8031 1975
8032 1982
8033 1983
8034 1985
8035 1981
8036 1971
8037 1959
8038 1948
8039 1941
8040 1936
8041 1926
8042 1915
8043 1911
8044 1908
8045 1911
8046 1921
8047 1929
8048 1939
8049 1950
8050 1958
8051 1966
8052 1970
8053 1969
8054 1971
8055 1969
8056 1966
8057 1962
8058 1954
8059 1942
8060 1931
8061 1920
8062 1915
8063 1915
8064 1912
8065 1915
8066 1923
8067 1928
8068 1937
8069 1944
8070 1952
8071 1960
8072 1966
8073 1970
8074 1972
8075 1968
8076 1960
8077 1952
8078 1944
8079 1938
8080 1933
8081 1929
8082 1924
8083 1927
8084 1931
8085 1936
8086 1949
8087 1966
8088 1986
8089 2006
8090 2027
8091 2049
8092 2072
8093 2093
8094 2110
8095 2124
8096 2138
8097 2151
8098 2162
8099 2175
8100 2189
8101 2200
8102 2205
8103 2217
8104 2222
8105 2214
8106 2198
8107 2174
8108 2154
8109 2136
8110 2121
8111 2109
8112 2102
8113 2089
8114 2077
8115 2062
8116 2042
8117 2022
8118 2000
8119 1973
8120 1947
8121 1924
8122 1902
8123 1883
8124 1863
8125 1852
8126 1851
8127 1854
8128 1863
8129 1872
8130 1881
8131 1892
8132 1905
8133 1911
8134 1916
8135 1920
8136 1917
8137 1911
8138 1907
8139 1905
8140 1903
8141 1901
8142 1895
8143 1895
8144 1896
8145 1897
8146 1903
8147 1912
8148 1926
8149 1940
8150 1952
8151 1958
8152 1969
8153 1971
8154 1972
8155 1972
8156 1967
8157 1962
8158 1954
8159 1945
8160 1936
8161 1932
8162 1923
8163 1919
8164 1919
8165 1918
8166 1921
8167 1929
8168 1937
8169 1944
8170 1950
8171 1955
8172 1965
8173 1967
8174 1971
8175 1975
8176 1969
8177 1963
8178 1953
8179 1944
8180 1937
8181 1933
8182 1923
8183 1920
8184 1920
8185 1920
8186 1922
8187 1928
8188 1939
8189 1947
8190 1955
8191 1959
8192 1966
8193 1970
8194 1976
8195 1980
8196 1977
8197 1968
8198 1959
8199 1953
8200 1945
8201 1936
8202 1926
8203 1921
8204 1920
8205 1919
8206 1923
8207 1933
8208 1946
8209 1952
8210 1960
8211 1966
8212 1979
8213 1983
8214 1984
8215 1982
8216 1978
8217 1972
8218 1961
8219 1951
8220 1943
8221 1937
8222 1927
8223 1924
8224 1923
8225 1923
8226 1927
8227 1935
8228 1946
8229 1958
8230 1965
8231 1969
8232 1980
8233 1983
8234 1989
8235 1992
8236 1984
8237 1980
8238 1971
8239 1962
8240 1954
8241 1950
8242 1940
8243 1937
8244 1938
8245 1939
8246 1943
8247 1945
8248 1953
8249 1962
8250 1971
8251 1976
8252 1982
8253 1984
8254 1985
8255 1987
8256 1984
8257 1980
8258 1972
8259 1965
8260 1960
8261 1953
8262 1945
8263 1941
8264 1939
8265 1932
8266 1937
8267 1943
8268 1953
8269 1962
8270 1971
8271 1977
8272 1988
8273 1993
8274 1996
8275 1999
8276 1994
8277 1988
8278 1977
8279 1971
8280 1963
8281 1959
8282 1952
8283 1945
8284 1945
8285 1943
8286 1949
8287 1957
8288 1962
8289 1970
8290 1979
8291 1985
8292 1994
8293 2000
8294 1999
8295 2003
8296 2003
8297 2001
8298 1994
8299 1989
8300 1982
8301 1973
8302 1960
8303 1953
8304 1951
8305 1950
8306 1955
8307 1962
8308 1972
8309 1984
8310 1994
8311 1996
8312 2003
8313 2009
8314 2014
8315 2018
8316 2017
8317 2013
8318 2005
8319 1996
8320 1990
8321 1984
8322 1975
8323 1974
8324 1971
8325 1963
8326 1967
8327 1975
8328 1985
8329 1996
8330 2005
8331 2012
8332 2023
8333 2027
8334 2027
8335 2030
8336 2027
8337 2022
8338 2014
8339 2004
8340 1996
8341 1990
8342 1979
8343 1971
8344 1974
8345 1976
8346 1977
8347 1983
8348 1989
8349 1997
8350 2006
8351 2012
8352 2023
8353 2028
8354 2033
8355 2037
8356 2036
8357 2031
8358 2022
8359 2010
8360 1999
8361 1991
8362 1982
8363 1974
8364 1973
8365 1969
8366 1970
8367 1976
8368 1984
8369 1997
8370 2008
8371 2013
8372 2020
8373 2027
8374 2028
8375 2033
8376 2032
8377 2024
8378 2014
8379 2002
8380 1991
8381 1983
8382 1975
8383 1969
8384 1967
8385 1965
8386 1963
8387 1965
8388 1972
8389 1982
8390 1989
8391 1992
8392 1998
8393 2008
8394 2009
8395 2011
8396 2010
8397 2003
8398 1995
8399 1985
8400 1973
8401 1961
8402 1951
8403 1942
8404 1943
8405 1942
8406 1943
8407 1947
8408 1951
8409 1960
8410 1968
8411 1973
8412 1981
8413 1990
8414 1992
8415 1992
8416 1990
8417 1986
8418 1979
8419 1969
8420 1960
8421 1949
8422 1939
8423 1933
8424 1935
8425 1934
8426 1937
8427 1941
8428 1950
8429 1957
8430 1960
8431 1963
8432 1968
8433 1975
8434 1978
8435 1981
8436 1982
8437 1979
8438 1970
8439 1960
8440 1955
8441 1950
8442 1944
8443 1933
8444 1929
8445 1922
8446 1921
8447 1931
8448 1941
8449 1952
8450 1963
8451 1969
8452 1974
8453 1981
8454 1982
8455 1983
8456 1981
8457 1975
8458 1970
8459 1959
8460 1950
8461 1942
8462 1936
8463 1929
8464 1924
8465 1922
8466 1922
8467 1925
8468 1933
8469 1945
8470 1956
8471 1966
8472 1972
8473 1978
8474 1981
8475 1986
8476 1992
8477 1984
8478 1974
8479 1966
8480 1958
8481 1946
8482 1936
8483 1930
8484 1932
8485 1932
8486 1929
8487 1933
8488 1939
8489 1948
8490 1958
8491 1968
8492 1972
8493 1982
8494 1985
8495 1988
8496 1993
8497 1989
8498 1979
8499 1966
8500 1955
8501 1948
8502 1946
8503 1936
8504 1934
8505 1933
8506 1931
8507 1936
8508 1944
8509 1952
8510 1960
8511 1970
8512 1974
8513 1984
8514 1986
8515 1984
8516 1982
8517 1977
8518 1971
8519 1963
8520 1958
8521 1952
8522 1950
8523 1941
8524 1935
8525 1932
8526 1931
8527 1938
8528 1948
8529 1958
8530 1962
8531 1967
8532 1969
8533 1982
8534 1987
8535 1990
8536 1989
8537 1983
8538 1975
8539 1965
8540 1955
8541 1947
8542 1944
8543 1935
8544 1929
8545 1924
8546 1922
8547 1927
8548 1934
8549 1944
8550 1952
8551 1961
8552 1968
8553 1981
8554 1984
8555 1988
8556 1991
8557 1986
8558 1983
8559 1972
8560 1958
8561 1946
8562 1938
8563 1929
8564 1926
8565 1924
8566 1920
8567 1925
8568 1934
8569 1945
8570 1954
8571 1962
8572 1967
8573 1978
8574 1982
8575 1981
8576 1983
8577 1979
8578 1973
8579 1962
8580 1953
8581 1947
8582 1942
8583 1933
8584 1925
8585 1922
8586 1921
8587 1927
8588 1934
8589 1944
8590 1953
8591 1964
8592 1968
8593 1979
8594 1988
8595 1987
8596 1987
8597 1985
8598 1982
8599 1974
8600 1963
8601 1954
8602 1949
8603 1938
8604 1928
8605 1923
8606 1919
8607 1924
8608 1928
8609 1937
8610 1946
8611 1955
8612 1961
8613 1971
8614 1976
8615 1976
8616 1978
8617 1977
8618 1973
8619 1965
8620 1956
8621 1945
8622 1940
8623 1931
8624 1927
8625 1926
8626 1925
8627 1930
8628 1934
8629 1940
8630 1950
8631 1959
8632 1962
8633 1973
8634 1977
8635 1975
8636 1975
8637 1972
8638 1972
8639 1966
8640 1956
8641 1945
8642 1942
8643 1933
8644 1924
8645 1921
8646 1917
8647 1921
8648 1926
8649 1937
8650 1947
8651 1958
8652 1962
8653 1968
8654 1974
8655 1975
8656 1976
8657 1973
8658 1969
8659 1963
8660 1954
8661 1943
8662 1934
8663 1925
8664 1919
8665 1923
8666 1927
8667 1927
8668 1929
8669 1935
8670 1945
8671 1956
8672 1966
8673 1976
8674 1985
8675 1984
8676 1986
8677 1982
8678 1977
8679 1968
8680 1958
8681 1950
8682 1939
8683 1928
8684 1921
8685 1920
8686 1916
8687 1920
8688 1925
8689 1933
8690 1942
8691 1952
8692 1961
8693 1969
8694 1977
8695 1978
8696 1981
8697 1979
8698 1972
8699 1967
8700 1958
8701 1947
8702 1939
8703 1931
8704 1922
8705 1914
8706 1908
8707 1910
8708 1917
8709 1927
8710 1940
8711 1950
8712 1958
8713 1968
8714 1977
8715 1979
8716 1981
8717 1979
8718 1974
8719 1969
8720 1963
8721 1954
8722 1942
8723 1931
8724 1920
8725 1917
8726 1918
8727 1923
8728 1927
8729 1933
8730 1943
8731 1953
8732 1958
8733 1964
8734 1972
8735 1973
8736 1971
8737 1967
8738 1965
8739 1962
8740 1955
8741 1949
8742 1944
8743 1938
8744 1932
8745 1931
8746 1929
8747 1926
8748 1929
8749 1936
8750 1943
8751 1950
8752 1957
8753 1967
8754 1975
8755 1978
8756 1977
8757 1978
8758 1974
8759 1970
8760 1961
8761 1952
8762 1945
8763 1939
8764 1930
8765 1928
8766 1926
8767 1926
8768 1930
8769 1938
8770 1945
8771 1950
8772 1954
8773 1960
8774 1969
8775 1973
8776 1977
8777 1977
8778 1972
8779 1965
8780 1957
8781 1949
8782 1938
8783 1929
8784 1922
8785 1920
8786 1922
8787 1924
8788 1932
8789 1937
8790 1945
8791 1957
8792 1970
8793 1978
8794 1990
8795 1998
8796 2001
8797 2002
8798 1999
8799 1995
8800 1987
8801 1979
8802 1973
8803 1969
8804 1962
8805 1958
8806 1955
8807 1956
8808 1966
8809 1976
8810 1986
8811 1994
8812 2004
8813 2008
8814 2018
8815 2026
8816 2026
8817 2024
8818 2020
8819 2016
8820 2011
8821 2007
8822 2000
8823 1996
8824 1988
8825 1987
8826 1988
8827 1989
8828 1993
8829 1996
8830 2003
8831 2014
8832 2023
8833 2024
8834 2033
8835 2035
8836 2038
8837 2040
8838 2030
8839 2014
8840 2002
8841 1992
8842 1982
8843 1976
8844 1967
8845 1961
8846 1957
8847 1954
8848 1956
8849 1959
8850 1964
8851 1970
8852 1978
8853 1980
8854 1988
8855 1993
8856 1992
8857 1989
8858 1981
8859 1972
8860 1962
8861 1954
8862 1944
8863 1936
8864 1925
8865 1918
8866 1915
8867 1914
8868 1917
8869 1922
8870 1929
8871 1937
8872 1949
8873 1959
8874 1968
8875 1972
8876 1973
8877 1973
8878 1970
8879 1964
8880 1956
8881 1948
8882 1941
8883 1934
8884 1926
8885 1922
8886 1921
8887 1918
8888 1921
8889 1929
8890 1937
8891 1944
8892 1951
8893 1956
8894 1965
8895 1972
8896 1974
8897 1975
8898 1970
8899 1964
8900 1955
8901 1945
8902 1933
8903 1929
8904 1921
8905 1916
8906 1915
8907 1912
8908 1916
8909 1924
8910 1935
8911 1950
8912 1964
8913 1969
8914 1981
8915 1996
8916 2006
8917 2020
8918 2026
8919 2031
8920 2037
8921 2043
8922 2050
8923 2066
8924 2082
8925 2097
8926 2116
8927 2138
8928 2166
8929 2190
8930 2215
8931 2241
8932 2267
8933 2284
8934 2304
8935 2312
8936 2300
8937 2281
8938 2251
8939 2217
8940 2180
8941 2141
8942 2106
8943 2076
8944 2044
8945 2014
8946 1991
8947 1966
8948 1945
8949 1923
8950 1902
8951 1885
8952 1875
8953 1866
8954 1867
8955 1868
8956 1870
8957 1878
8958 1879
8959 1879
8960 1878
8961 1875
8962 1875
8963 1880
8964 1880
8965 1885
8966 1890
8967 1890
8968 1901
8969 1910
8970 1920
8971 1927
8972 1935
8973 1945
8974 1954
8975 1961
8976 1963
8977 1968
8978 1969
8979 1964
8980 1958
8981 1948
8982 1940
8983 1936
8984 1925
8985 1917
8986 1919
8987 1921
8988 1923
8989 1928
8990 1936
8991 1946
8992 1953
8993 1958
8994 1966
8995 1976
8996 1977
8997 1979
8998 1976
8999 1969
9000 1960
9001 1948
9002 1940
9003 1937
9004 1928
9005 1922
9006 1923
9007 1920
9008 1921
9009 1927
9010 1937
9011 1948
9012 1957
9013 1964
9014 1969
9015 1974
9016 1977
9017 1984
9018 1983
9019 1980
9020 1972
9021 1959
9022 1949
9023 1938
9024 1930
9025 1924
9026 1922
9027 1920
9028 1924
9029 1930
9030 1937
9031 1948
9032 1956
9033 1962
9034 1966
9035 1975
9036 1979
9037 1981
9038 1979
9039 1974
9040 1967
9041 1961
9042 1953
9043 1944
9044 1937
9045 1930
9046 1928
9047 1923
9048 1925
9049 1929
9050 1938
9051 1949
9052 1961
9053 1969
9054 1980
9055 1991
9056 1992
9057 1993
9058 1991
9059 1983
9060 1975
9061 1968
9062 1961
9063 1960
9064 1951
9065 1934
9066 1931
9067 1931
9068 1931
9069 1933
9070 1941
9071 1952
9072 1962
9073 1970
9074 1976
9075 1987
9076 1992
9077 1996
9078 1998
9079 1993
9080 1987
9081 1974
9082 1965
9083 1958
9084 1953
9085 1943
9086 1940
9087 1940
9088 1940
9089 1945
9090 1951
9091 1964
9092 1973
9093 1981
9094 1985
9095 1993
9096 1996
9097 1999
9098 1998
9099 1991
9100 1986
9101 1977
9102 1966
9103 1959
9104 1957
9105 1951
9106 1950
9107 1950
9108 1950
9109 1955
9110 1963
9111 1976
9112 1985
9113 1989
9114 1990
9115 1998
9116 2006
9117 2009
9118 2013
9119 2007
9120 2001
9121 1992
9122 1982
9123 1971
9124 1965
9125 1957
9126 1957
9127 1957
9128 1956
9129 1962
9130 1970
9131 1979
9132 1987
9133 1998
9134 2004
9135 2014
9136 2020
9137 2022
9138 2022
9139 2018
9140 2014
9141 2003
9142 1995
9143 1986
9144 1983
9145 1976
9146 1971
9147 1967
9148 1966
9149 1971
9150 1978
9151 1989
9152 1997
9153 2006
9154 2014
9155 2027
9156 2031
9157 2034
9158 2037
9159 2035
9160 2032
9161 2018
9162 2013
9163 2004
9164 2000
9165 1991
9166 1987
9167 1984
9168 1983
9169 1987
9170 1995
9171 2005
9172 2014
9173 2020
9174 2023
9175 2035
9176 2041
9177 2044
9178 2045
9179 2041
9180 2033
9181 2027
9182 2019
9183 2008
9184 2002
9185 1991
9186 1987
9187 1986
9188 1983
9189 1983
9190 1988
9191 1996
9192 2006
9193 2017
9194 2022
9195 2031
9196 2035
9197 2035
9198 2037
9199 2036
9200 2029
9201 2016
9202 2006
9203 1999
9204 1995
9205 1983
9206 1974
9207 1969
9208 1966
9209 1971
9210 1980
9211 1988
9212 1999
9213 2005
9214 2009
9215 2015
9216 2016
9217 2019
9218 2025
9219 2019
9220 2009
9221 1998
9222 1988
9223 1981
9224 1975
9225 1969
9226 1965
9227 1964
9228 1955
9229 1953
9230 1958
9231 1962
9232 1968
9233 1979
9234 1985
9235 1995
9236 1998
9237 1996
9238 1997
9239 1994
9240 1987
9241 1975
9242 1965
9243 1957
9244 1950
9245 1942
9246 1937
9247 1937
9248 1934
9249 1936
9250 1940
9251 1950
9252 1961
9253 1968
9254 1973
9255 1984
9256 1992
9257 1993
9258 1993
9259 1986
9260 1978
9261 1968
9262 1958
9263 1950
9264 1945
9265 1938
9266 1933
9267 1933
9268 1928
9269 1931
9270 1937
9271 1947
9272 1961
9273 1971
9274 1979
9275 1987
9276 1992
9277 1992
9278 1992
9279 1986
9280 1977
9281 1968
9282 1959
9283 1949
9284 1942
9285 1933
9286 1927
9287 1928
9288 1923
9289 1928
9290 1935
9291 1943
9292 1955
9293 1966
9294 1972
9295 1978
9296 1985
9297 1985
9298 1985
9299 1981
9300 1976
9301 1968
9302 1961
9303 1954
9304 1950
9305 1941
9306 1939
9307 1939
9308 1933
9309 1932
9310 1934
9311 1940
9312 1949
9313 1961
9314 1970
9315 1980
9316 1988
9317 1987
9318 1988
9319 1983
9320 1978
9321 1973
9322 1965
9323 1955
9324 1949
9325 1943
9326 1934
9327 1931
9328 1931
9329 1932
9330 1939
9331 1948
9332 1958
9333 1966
9334 1972
9335 1979
9336 1987
9337 1992
9338 1997
9339 1994
9340 1987
9341 1980
9342 1972
9343 1963
9344 1956
9345 1950
9346 1941
9347 1940
9348 1941
9349 1941
9350 1942
9351 1949
9352 1961
9353 1966
9354 1971
9355 1979
9356 1987
9357 1989
9358 1990
9359 1989
9360 1983
9361 1978
9362 1968
9363 1961
9364 1955
9365 1950
9366 1940
9367 1936
9368 1933
9369 1932
9370 1938
9371 1947
9372 1958
9373 1969
9374 1975
9375 1978
9376 1983
9377 1984
9378 1987
9379 1990
9380 1987
9381 1977
9382 1964
9383 1958
9384 1952
9385 1945
9386 1938
9387 1934
9388 1929
9389 1930
9390 1941
9391 1951
9392 1960
9393 1968
9394 1973
9395 1980
9396 1990
9397 1991
9398 1992
9399 1990
9400 1989
9401 1982
9402 1972
9403 1961
9404 1949
9405 1944
9406 1933
9407 1932
9408 1932
9409 1932
9410 1936
9411 1942
9412 1952
9413 1962
9414 1969
9415 1973
9416 1985
9417 1992
9418 1992
9419 1994
9420 1991
9421 1983
9422 1971
9423 1959
9424 1950
9425 1942
9426 1930
9427 1929
9428 1930
9429 1928
9430 1929
9431 1936
9432 1946
9433 1960
9434 1973
9435 1979
9436 1988
9437 1989
9438 1991
9439 1992
9440 1987
9441 1980
9442 1971
9443 1965
9444 1957
9445 1949
9446 1938
9447 1932
9448 1929
9449 1929
9450 1935
9451 1941
9452 1948
9453 1956
9454 1965
9455 1969
9456 1980
9457 1985
9458 1984
9459 1984
9460 1980
9461 1972
9462 1960
9463 1952
9464 1944
9465 1939
9466 1929
9467 1926
9468 1928
9469 1924
9470 1928
9471 1937
9472 1947
9473 1957
9474 1970
9475 1974
9476 1980
9477 1986
9478 1987
9479 1988
9480 1981
9481 1973
9482 1960
9483 1953
9484 1946
9485 1940
9486 1929
9487 1926
9488 1927
9489 1927
9490 1933
9491 1939
9492 1949
9493 1957
9494 1970
9495 1972
9496 1980
9497 1980
9498 1979
9499 1980
9500 1978
9501 1975
9502 1969
9503 1963
9504 1953
9505 1944
9506 1931
9507 1925
9508 1925
9509 1923
9510 1926
9511 1934
9512 1944
9513 1953
9514 1964
9515 1969
9516 1980
9517 1985
9518 1989
9519 1993
9520 1986
9521 1977
9522 1969
9523 1960
9524 1948
9525 1941
9526 1935
9527 1930
9528 1928
9529 1927
9530 1930
9531 1939
9532 1947
9533 1951
9534 1957
9535 1965
9536 1971
9537 1979
9538 1982
9539 1986
9540 1986
9541 1978
9542 1965
9543 1954
9544 1946
9545 1940
9546 1933
9547 1925
9548 1928
9549 1925
9550 1928
9551 1932
9552 1939
9553 1948
9554 1959
9555 1962
9556 1969
9557 1973
9558 1974
9559 1977
9560 1974
9561 1970
9562 1964
9563 1958
9564 1951
9565 1946
9566 1935
9567 1924
9568 1923
9569 1920
9570 1921
9571 1930
9572 1943
9573 1956
9574 1965
9575 1972
9576 1981
9577 1987
9578 1988
9579 1987
9580 1982
9581 1974
9582 1964
9583 1956
9584 1947
9585 1941
9586 1932
9587 1925
9588 1924
9589 1923
9590 1929
9591 1932
9592 1940
9593 1952
9594 1962
9595 1969
9596 1978
9597 1985
9598 1983
9599 1984
9600 1980
9601 1976
9602 1968
9603 1958
9604 1951
9605 1944
9606 1936
9607 1931
9608 1931
9609 1929
9610 1929
9611 1935
9612 1945
9613 1955
9614 1964
9615 1966
9616 1972
9617 1976
9618 1977
9619 1980
9620 1978
9621 1973
9622 1966
9623 1959
9624 1951
9625 1948
9626 1941
9627 1934
9628 1934
9629 1935
9630 1938
9631 1947
9632 1957
9633 1969
9634 1982
9635 1989
9636 1999
9637 2009
9638 2010
9639 2012
9640 2013
9641 2010
9642 2005
9643 1994
9644 1984
9645 1979
9646 1977
9647 1974
9648 1972
9649 1967
9650 1970
9651 1973
9652 1979
9653 1989
9654 2000
9655 2011
9656 2022
9657 2032
9658 2039
9659 2044
9660 2043
9661 2038
9662 2032
9663 2026
9664 2021
9665 2019
9666 2012
9667 2000
9668 1995
9669 1991
9670 1990
9671 1998
9672 2004
9673 2010
9674 2011
9675 2013
9676 2020
9677 2027
9678 2028
9679 2029
9680 2027
9681 2020
9682 2012
9683 2000
9684 1986
9685 1977
9686 1969
9687 1956
9688 1951
9689 1948
9690 1944
9691 1942
9692 1944
9693 1956
9694 1966
9695 1966
9696 1968
9697 1981
9698 1990
9699 1990
9700 1988
9701 1979
9702 1973
9703 1963
9704 1953
9705 1945
9706 1938
9707 1924
9708 1921
9709 1918
9710 1917
9711 1920
9712 1927
9713 1935
9714 1944
9715 1954
9716 1958
9717 1966
9718 1966
9719 1970
9720 1975
9721 1976
9722 1970
9723 1961
9724 1952
9725 1940
9726 1934
9727 1927
9728 1925
9729 1919
9730 1919
9731 1925
9732 1932
9733 1942
9734 1949
9735 1955
9736 1956
9737 1965
9738 1966
9739 1969
9740 1974
9741 1970
9742 1959
9743 1949
9744 1945
9745 1938
9746 1931
9747 1920
9748 1920
9749 1923
9750 1925
9751 1935
9752 1946
9753 1959
9754 1974
9755 1993
9756 2009
9757 2029
9758 2049
9759 2069
9760 2089
9761 2103
9762 2116
9763 2126
9764 2135
9765 2146
9766 2160
9767 2174
9768 2192
9769 2211
9770 2227
9771 2249
9772 2269
9773 2285
9774 2285
9775 2269
9776 2243
9777 2228
9778 2210
9779 2185
9780 2156
9781 2125
9782 2092
9783 2058
9784 2027
9785 1994
9786 1966
9787 1935
9788 1905
9789 1876
9790 1849
9791 1838
9792 1837
9793 1841
9794 1849
9795 1857
9796 1867
9797 1885
9798 1895
9799 1904
9800 1914
9801 1923
9802 1923
9803 1918
9804 1912
9805 1911
9806 1911
9807 1905
9808 1902
9809 1901
9810 1900
9811 1907
9812 1917
9813 1930
9814 1941
9815 1953
9816 1962
9817 1973
9818 1976
9819 1974
9820 1979
9821 1976
9822 1973
9823 1959
9824 1947
9825 1940
9826 1938
9827 1928
9828 1922
9829 1921
9830 1915
9831 1919
9832 1927
9833 1939
9834 1950
9835 1960
9836 1966
9837 1977
9838 1980
9839 1978
9840 1974
9841 1972
9842 1971
9843 1964
9844 1955
9845 1949
9846 1946
9847 1937
9848 1929
9849 1929
9850 1927
9851 1929
9852 1932
9853 1938
9854 1946
9855 1959
9856 1967
9857 1976
9858 1982
9859 1982
9860 1981
9861 1974
9862 1969
9863 1962
9864 1955
9865 1944
9866 1940
9867 1933
9868 1927
9869 1927
9870 1927
9871 1930
9872 1935
9873 1940
9874 1950
9875 1961
9876 1968
9877 1978
9878 1984
9879 1984
9880 1987
9881 1986
9882 1985
9883 1975
9884 1966
9885 1957
9886 1947
9887 1936
9888 1931
9889 1931
9890 1929
9891 1931
9892 1935
9893 1943
9894 1954
9895 1964
9896 1972
9897 1982
9898 1989
9899 1990
9900 1996
9901 1996
9902 1989
9903 1977
9904 1967
9905 1958
9906 1954
9907 1946
9908 1937
9909 1934
9910 1930
9911 1936
9912 1943
9913 1950
9914 1959
9915 1968
9916 1974
9917 1985
9918 1995
9919 1994
9920 1995
9921 1997
9922 1994
9923 1983
9924 1975
9925 1968
9926 1962
9927 1953
9928 1946
9929 1946
9930 1945
9931 1948
9932 1955
9933 1963
9934 1971
9935 1981
9936 1988
9937 1997
9938 2003
9939 2004
9940 2006
9941 2005
9942 1999
9943 1992
9944 1980
9945 1973
9946 1969
9947 1961
9948 1955
9949 1953
9950 1949
9951 1952
9952 1959
9953 1965
9954 1975
9955 1982
9956 1988
9957 1995
9958 2005
9959 2010
9960 2014
9961 2015
9962 2010
9963 2002
9964 1992
9965 1980
9966 1973
9967 1968
9968 1962
9969 1961
9970 1963
9971 1966
9972 1969
9973 1978
9974 1992
9975 1999
9976 2006
9977 2014
9978 2019
9979 2021
9980 2028
9981 2026
9982 2018
9983 2011
9984 2001
9985 1993
9986 1986
9987 1983
9988 1976
9989 1976
9990 1976
9991 1974
9992 1980
9993 1987
9994 1997
9995 2004
9996 2012
9997 2015
9998 2028
9999 2038